ied,motion,ac_y
-12114991.0,0.0,0.0
-12114665.0,6.856042237624024,163.0
-12115965.0,3.421357325974668,-217.63
-12117369.0,6.618083278247923,-755.9537
-12123969.0,2.739524445017423,-791.894163
-12120087.0,0.4634019961199556,-1046.9752213699999
-12134038.0,2.6290440630382363,-1612.6483262999552
-12151789.0,3.7004507182950874,-2513.8789858933005
-12184084.0,7.14389289994665,-4091.1290849224283
-12264795.0,13.061111488741744,-6132.128905185888
-12342325.0,24.716231113759022,-8501.462161588337
-12422848.0,10.2179478111957,-11108.659661183447
-12523834.0,41.66640209379284,-15079.073064571612
-12640229.0,40.64722417596454,-19703.61566725985
-12752310.0,12.809466462555974,-24840.2461772533
-12781362.0,50.41243147285104,-30475.17704881472
-12784650.0,116.88931949245557,-36837.42527832657
-12778590.0,160.91523655374067,-43685.71769220935
-12792267.0,198.6530690630857,-50905.69384862121
-12813964.0,241.30750828468035,-58396.636910135
-12842393.0,276.84031923892553,-65812.67054103364
-12877347.0,317.3693987134759,-73154.5438356233
-12930536.0,299.0880502966236,-80422.99839726707
-12971900.0,281.68296922391005,-87618.7684132944
-12990800.0,302.94442829017044,-94742.58072916145
-12972234.0,297.9708323339569,-101795.15492186983
-12919367.0,46.903278803400326,-108777.20337265113
-12826678.0,46.43424601536617,-115689.43133892462
-12695076.0,45.96990355521234,-122532.53702553538
-12522015.0,45.51020451966019,-129307.21165528003
-12336918.0,45.05510247446364,-136014.13953872724
-12167842.0,44.60455144971888,-142653.99814333997
-12065402.0,392.17370906281553,-149227.45816190657
-12010296.0,459.1381195708484,-154401.85024695355
-11976922.0,393.18768813386055,-158191.16507781798
-11982027.0,297.0464636696331,-160609.2534270398
-12000486.0,207.29680805959674,-161669.82755943545
-12010287.0,116.19273135722597,-161386.46261717504
-12014444.0,10.85091556191037,-159772.59799100328
-12017207.0,60.15640531586632,-156841.5386777593
-12018197.0,79.90247994996685,-152606.45662431564
-12016532.0,88.87385566156763,-147080.3920580725
-12012637.0,124.0129074586182,-140276.25480415783
-12006346.0,42.30654951421775,-132206.8255894502
-11998687.0,114.2670781537804,-122884.7573335557
-11993372.0,128.8728820098254,-113655.90976022014
-11989667.0,48.17485276597017,-104519.35066261793
-11986134.0,60.24012164913415,-95474.15715599175
-11984426.0,354.2904609780978,-86519.41558443183
-11984962.0,321.86599877419553,-77654.22142858751
-11987168.0,247.71134227684888,-68877.67921430164
-11992619.0,77.2920944203106,-60188.902422158615
-12000952.0,65.5884061114698,-51587.01339793703
-12012845.0,194.57215089281794,-43071.14326395766
-12029661.0,273.24285611515666,-34640.431831318085
-12051990.0,275.4892672584099,-26294.027513004905
-12080486.0,226.0710217314786,-18031.087237874857
-12114645.0,272.9837328518429,-9850.776365496109
-12149926.0,311.76303240424136,-1752.2686018411478
-12213913.0,262.00095968128676,5708.92075084331
-12285482.0,223.99034340748017,11762.16487666883
-12350011.0,269.7590085801978,16421.54322790214
-12412799.0,345.1531324025218,19700.994462289163
-12464595.0,269.7126633894045,21614.317851000225
-12494783.0,50.085563028224215,22175.174672490222
-12515342.0,39.15665442450518,21397.089592431366
-12532768.0,120.65915808242903,19293.452029841006
-12545992.0,2.3654331718059893,15877.517509542595
-12550760.0,49.234219719088514,11162.409001113214
-12562190.0,2.0283892838583597,5161.118244436037
-12573573.0,33.71941934466713,-2113.492938008324
-12577273.0,161.4797638371981,-10092.358008628242
-12570387.0,127.62432549898358,-17991.434428541957
-12577292.0,92.5894785206026,-25811.52008425654
-12579912.0,107.48225739228656,-33553.40488341397
-12581464.0,127.35640080939015,-41217.87083457983
-12585816.0,126.08283680129625,-48805.69212623403
-12594892.0,124.82200843328314,-56317.635204971695
-12594793.0,123.5737883489503,-63754.458852921976
-12592330.0,122.33805046546081,-71116.91426439275
-12588524.0,5.1387013934065635,-78405.74512174883
-12583386.0,93.91062912721668,-85621.68767053133
-12579069.0,155.94955658104504,-92765.47079382603
-12577410.0,120.54451055194386,-99837.81608588777
-12578281.0,110.76753423334708,-106839.43792502889
-12576144.0,132.13464226150472,-113771.04354577861
-12571969.0,159.27107926009012,-120633.33311032082
-12565660.0,84.41365081261188,-127426.99977921761
-12566503.0,102.88661788005697,-134152.72978142544
-12567297.0,133.24296941814146,-140811.20248361118
-12564064.0,143.47897645865874,-147403.09045877506
-12549174.0,144.92358089986146,-153929.0595541873
-12518525.0,171.62886649308507,-160389.7689586454
-12489275.0,4.419075386932263,-166785.87126905896
-12549634.0,7.696647707732382,-173118.01255636837
-12588257.0,14.158820101462425,-179386.83243080467
-12584746.0,85.93659924520989,-185592.96410649663
-12555102.0,77.85577544417401,-191737.03446543167
-12551212.0,60.68177771007663,-197819.66412077736
-14197073.0,49.05528655563626,-203841.46747956958
-14102056.0,5.194353703509023,-209803.05280477388
-13954795.0,25.15940881219467,-215705.02227672614
-13972081.0,11.316842697767697,-221547.9720539589
-14044011.0,32.68673662215383,-227332.4923334193
-14136294.0,113.34882870796696,-233059.1674100851
-14192374.0,164.44362166930478,-238728.57573598425
-14226789.0,39.803456670321566,-244341.2899786244
-14267326.0,39.40542210361855,-249897.87707883815
-14305702.0,39.01136788258236,-255398.89830804977
-14334397.0,38.62125420375651,-260844.90932496928
-14355465.0,38.23504166171915,-266236.4602317196
-14371816.0,37.85269124510205,-271574.0956294024
-14388322.0,198.26552257121125,-276858.3546731084
-14403048.0,96.94835113599788,-282089.7711263773
-14408872.0,5.531366155264777,-287268.8734151135
-14414811.0,26.97825823662106,-292396.18468096235
-14410032.0,29.286654374675436,-297472.22283415275
-14394008.0,36.88545536358515,-302497.50060581125
-14367262.0,18.639019212676658,-307472.52559975313
-14327524.0,26.95822610399682,-312397.8003437556
-14288522.0,55.346418548410156,-317273.822340318
-14259018.0,102.19358573260729,-322101.08411691483
-14237220.0,106.23133621040483,-326880.0732757457
-14249219.0,104.44901180806619,-331611.27254298824
-14293239.0,91.7010930657184,-336295.15981755836
-14368635.0,103.06306773450842,-340932.2082193828
-14460761.0,91.54141414052765,-345522.88613718894
-14538068.0,57.10666712638681,-350067.65727581707
-14593922.0,96.29575200335125,-354566.9807030589
-14633970.0,118.53696016220692,-359021.3108960283
-14665187.0,138.97270189848587,-363431.097787068
-14689270.0,138.28960232431518,-367796.78680919734
-14707385.0,131.58108503019344,-372118.81894110533
-14720502.0,155.65559282238246,-376397.63075169426
-14721748.0,186.6909673670741,-380633.65444417734
-14727858.0,155.46450739572697,-384827.3178997356
-14738266.0,158.77075423356973,-388979.04472073825
-14740723.0,126.34222692946992,-393089.25427353085
-14726477.0,117.29679311092809,-397158.3617307955
-14706802.0,157.06266741606578,-401186.7781134876
-14681728.0,141.90411486126095,-405174.9103323527
-14655344.0,101.76611115114565,-409123.1612290291
-14637127.0,200.29379380109458,-413031.9296167388
-14631385.0,442.216000980673,-416901.6103205714
-14629853.0,142.09210136444517,-420732.59421736567
-14631840.0,197.50308676993336,-424525.268275192
-14632774.0,200.68327771251256,-428280.0155924401
-14633226.0,147.4005589678136,-431997.2154365157
-14633588.0,61.524802860026284,-435677.24328215054
-14632215.0,93.76332715928265,-439320.470849329
-14631266.0,134.81224944147425,-442927.2661408357
-14629600.0,134.40732685220723,-446497.99347942736
-14626649.0,159.65663218269947,-450033.01354463305
-14623269.0,52.14911651081297,-453532.6834091867
-14613046.0,51.62762534570493,-456997.35657509486
-14599720.0,51.11134909224802,-460427.38300934393
-14582728.0,50.60023560132572,-463823.1091792505
-14564607.0,50.09423324531258,-467184.87808745797
-14547077.0,49.59329091285963,-470513.0293065834
-14531206.0,49.09735800373119,-473807.89901351754
-14516937.0,205.15171943409814,-477069.8200233824
-14507299.0,217.574441006783,-480299.12182314857
-14502762.0,238.4453940260887,-483496.13060491707
-14502507.0,263.10853543962094,-486661.16929886787
-14501600.0,266.45157194064836,-489794.5576058792
-14497796.0,261.1805449578326,-492896.6120298204
-14494504.0,237.91413806030505,-495967.6459095222
-14490294.0,197.69649674473112,-499007.969450427
-14485551.0,119.23032476655817,-502017.8897559227
-14480480.0,50.476567231366516,-504997.7108583635
-14475365.0,9.381970935258323,-507947.7337497799
-14471009.0,95.11011394875118,-510868.25641228206
-14463870.0,166.6238937277958,-513759.5738481592
-14458953.0,237.1914603089965,-516621.9781096776
-14453088.0,339.0681639739871,-519455.7583285808
-14446670.0,454.76718882578166,-522261.20074529503
-14441683.0,653.877302225929,-525038.5887378422
-14437068.0,601.1686900468965,-527788.2028504638
-14432231.0,541.1586314198969,-530510.3208219592
-14427470.0,509.8818293276406,-533205.2176137395
-14422146.0,470.3993943384637,-535873.1654376021
-14416802.0,439.8251851181651,-538514.4337832261
-14410098.0,429.47619677882426,-541129.2894453938
-14404631.0,397.1577754256889,-543717.9965509399
-14399421.0,371.5178327781043,-546280.8165854304
-14394768.0,338.48732728506843,-548818.0084195761
-14390760.0,293.74636422047274,-551329.8283353803
-14387464.0,211.40877417164324,-553816.5300520265
-14385023.0,117.11166570767455,-556278.3647515062
-14382323.0,19.09059413500586,-558715.5811039911
-14379765.0,55.556617784268155,-561128.4252929512
-14378718.0,106.3112378216963,-563517.1410400217
-14376781.0,140.79212622840532,-565881.9696296215
-14374298.0,168.61018537494738,-568223.1499333252
-14372517.0,186.8831363934562,-570540.918433992
-14370852.0,177.16035014381418,-572835.509249652
-14369143.0,148.76064272467238,-575107.1541571555
-14366588.0,128.19810833377437,-577356.082615584
-14366551.0,114.52479529642233,-579582.5217894282
-14364350.0,86.73367707359535,-581786.6965715339
-14364561.0,62.74191229012604,-583968.8296058186
-14362482.0,12.98783413663341,-586129.1413097604
-14361487.0,449.81210236728407,-588267.8498966628
-14361039.0,449.81210236728407,-590385.1713976961
-14360370.0,449.81210236728407,-592481.3196837192
-14359674.0,449.81210236728407,-594556.506486882
-14358997.0,449.81210236728407,-596610.9414220132
-14357847.0,449.81210236728407,-598644.8320077931
-14356693.0,16.468174228188445,-600658.3836877152
-14356330.0,13.177740243490234,-602651.799850838
-14355036.0,7.694452597715554,-604625.2818523296
-14353703.0,11.712438688203974,-606579.0290338063
-14352002.0,68.05077147215866,-608513.2387434682
-14348703.0,107.1823531749601,-610428.1063560335
-14346214.0,106.11052964321038,-612323.8252924731
-14343276.0,137.06428124908825,-614200.5870395483
-14341220.0,181.016453097129,-616058.5811691529
-14337509.0,183.10109755887993,-617897.9953574613
-14334182.0,129.78554086352642,-619719.0154038867
-14328909.0,78.86856824335086,-621521.8252498478
-14326267.0,53.45133579766457,-623306.6069973493
-14321472.0,45.954963184113694,-625073.5409273758
-14319504.0,43.605096213867,-626822.805518102
-14314941.0,37.14172171635164,-628554.577462921
-14313097.0,66.04271350162503,-630269.0316882918
-14309926.0,71.62950108228233,-631966.3413714089
-14307081.0,55.46990256510776,-633646.6779576947
-14304195.0,78.96761630308356,-635310.2111781178
-14301663.0,71.56649549678423,-636957.1090663366
-14297775.0,41.802438867700175,-638587.5379756733
-14296766.0,25.87555739355821,-640201.6625959165
-14294274.0,46.40638421195149,-641799.6459699573
-14292221.0,68.00905632334207,-643381.6495102578
-14289999.0,69.8264838804007,-644947.8330151552
-14288026.0,63.80575620766217,-646498.3546850036
-14284989.0,64.40535067478208,-648033.3711381536
-14283675.0,77.2950437991633,-649553.0374267721
-14281702.0,75.86740082077063,-651057.5070525043
-14279928.0,77.19155514772751,-652546.9319819793
-14278495.0,97.59846370733476,-654021.4626621595
-14278012.0,20.287075660324945,-655481.2480355379
-14275945.0,9.969898617617673,-656926.4355551825
-14274455.0,33.432231260508615,-658357.1711996307
-14272505.0,36.842213186546815,-659773.5994876344
-14270927.0,71.24453592121063,-661175.863492758
-14267950.0,119.9196903392658,-662564.1048578304
-14267201.0,138.26840382442447,-663938.4638092521
-14266054.0,133.2235618024563,-665299.0791711597
-14265068.0,117.30024889141396,-666646.088379448
-14263661.0,86.09348678967558,-667979.6274956536
-14262465.0,152.5517849184007,-669299.831220697
-14261603.0,151.02626706921683,-670606.8329084901
-14260728.0,149.51600439852473,-671900.7645794052
-14260115.0,148.02084435453958,-673181.7569336111
-14259425.0,146.5406359109943,-674449.939364275
-14258524.0,145.07522955188438,-675705.4399706322
-14258304.0,69.7762544224181,-676948.3855709259
-14257342.0,52.57817812723238,-678178.9017152166
-14256756.0,40.4272236654399,-679397.1126980644
-14256399.0,32.17518880202783,-680603.1415710838
-14255948.0,43.53859679194011,-681797.110155373
-14255380.0,54.483267196709676,-682979.1390538192
-14253889.0,53.444252220138196,-684149.347663281
-14253719.0,67.28487369999425,-685307.8541866482
-14254661.0,72.15978329567565,-686454.7756447817
-14254165.0,67.30426773203817,-687590.2278883338
-14253677.0,76.87794125543132,-688714.3256094505
-14252592.0,70.09832009358433,-689827.1823533559
-14252354.0,75.51987244791462,-690928.9105298223
-14251811.0,72.15149503402108,-692019.6214245241
-14251501.0,64.99452338042488,-693099.4252102788
-14251159.0,40.99489860545282,-694168.430958176
-14249664.0,94.98267467660003,-695226.7466485943
-14250109.0,100.97104523125972,-696274.4791821083
-14249942.0,86.45830491084462,-697311.7343902872
-14249760.0,67.47091779382754,-698338.6170463844
-14249942.0,64.8741901464316,-699355.2308759205
-14248949.0,43.3328754785241,-700361.6785671613
-14249057.0,31.3661822522306,-701358.0617814898
-14249622.0,29.652550602982274,-702344.4811636748
-14249317.0,34.060137563615626,-703321.0363520382
-14249321.0,21.40353140569414,-704287.8259885177
-14250788.0,21.18949609163724,-705244.9477286325
-14249538.0,20.977601130720814,-706192.4982513462
-14249611.0,20.7678251194136,-707130.5732688328
-14249578.0,20.560146868219363,-708059.2675361445
-14249698.0,20.354545399537074,-708978.674860783
-14249724.0,20.15099994554157,-709888.8881121752
-14249444.0,40.90393207990155,-710789.9992310534
-14250537.0,31.2952644573586,-711682.0992387428
-14250292.0,36.35265096462149,-712565.2782463554
-14250388.0,54.04246129789749,-713439.6254638918
-14249611.0,62.607535778863394,-714305.2292092529
-14249837.0,52.84050144310845,-715162.1769171603
-14250941.0,51.35567720122049,-716010.5551479887
-14251380.0,58.83480025158997,-716850.4495965089
-14251163.0,51.25303893606315,-717681.9451005438
-14251108.0,52.75208190096623,-718505.1256495384
-14251586.0,62.65707248568992,-719320.074393043
-14251067.0,49.785127921365756,-720126.8736491125
-14250983.0,39.463631324186736,-720925.6049126214
-14253210.0,20.819110285623083,-721716.3488634952
-14251751.0,12.658251260985253,-722499.1853748602
-14251919.0,43.84339737760456,-723274.1935211116
-14252831.0,46.9672791296332,-724041.4515859005
-14254388.0,43.39304365193129,-724801.0370700415
-14254673.0,45.6189440700025,-725553.0266993411
-14254542.0,49.49652362472352,-726297.4964323477
-14253999.0,58.547005015257355,-727034.5214680242
-14251922.0,28.315751349824723,-727764.1762533439
-14251583.0,21.181002611446047,-728486.5344908105
-14250265.0,36.11928347634148,-729201.6691459024
-14248870.0,50.18311864918337,-729909.6524544434
-14247981.0,44.633644973621585,-730610.555929899
-14248092.0,46.271173254022415,-731304.4503706
-14247047.0,34.8254833987271,-731991.4058668939
-14244810.0,49.93934791114134,-732671.491808225
-14244075.0,57.7750415746134,-733344.7768901428
-14244428.0,37.4339412630859,-734011.3291212413
-14244651.0,47.90203155656968,-734671.2158300289
-14244473.0,18.661710391344286,-735324.5036717285
-14243656.0,25.68622123122168,-735971.2586350113
-14243734.0,51.89510971857658,-736611.5460486611
-14243975.0,43.06178144612045,-737245.4305881745
-14243389.0,34.83905658000094,-737872.9762822927
-14243071.0,20.515770060275372,-738494.2465194698
-14244495.0,14.046545562356869,-738533.387387609
-14243703.0,6.417330026083846,-737902.886847065
-14243239.0,11.000519105987678,-736585.8579785943
-14243579.0,17.137307427237374,-734631.1660654763
-14245283.0,16.96593435296495,-732039.6877381536
-14244350.0,16.79627500943525,-728807.45752744
-14244878.0,16.628312259340873,-724994.7996188317
-14246565.0,16.46202913674756,-720597.6016226434
-14246873.0,16.297408845380232,-715611.4589397509
-14247137.0,16.134434756926566,-710115.3443503533
-14247179.0,13.455774279429534,-704033.1909068498
-14247104.0,36.16894757677096,-697364.4423311134
-14247289.0,39.09442783422992,-690674.3812411362
-14247289.0,32.81273925113305,-684057.304095391
-14245766.0,33.796925509627044,-677532.564387771
-14246322.0,25.713858525764863,-671050.9887438932
-14247081.0,27.044515994457697,-664621.9788564543
-14246496.0,35.49682159255781,-658208.5090678897
-14246536.0,23.739560615219943,-651805.2573105447
-14248001.0,32.15137595752594,-645425.3714041053
-14248610.0,28.981679574797226,-639120.9510233982
-14248672.0,22.56567222556805,-632849.4081798303
-14247548.0,19.248978389591684,-626614.9140980319
-14248280.0,24.722129182268645,-620446.7649570516
-14248744.0,22.31857277526069,-614365.047307481
-14250737.0,10.961547852864669,-608345.8135010722
-14249772.0,39.98849002081943,-602392.7720327295
-14251322.0,24.833989578482033,-596591.1776457343
-14251721.0,26.548854034309443,-590929.9325359449
-14252630.0,24.670193352447313,-585422.7998772515
-14253085.0,20.94396133459827,-580003.988545145
-14251571.0,6.383996941017585,-574636.0319930275
-14254467.0,6.894882992730572,-569352.0883397633
-14253896.0,21.45553312389461,-564082.2341230336
-14255736.0,32.068698115297366,-558932.6617818032
-14256430.0,43.159797318953906,-553858.9184973172
-14257129.0,33.88710364266353,-548914.162645678
-14257349.0,26.326585735104345,-544071.5210192213
-14256516.0,30.967331822777624,-539278.4724756951
-14257288.0,5.203301620910679,-534498.7710842721
-14259398.0,8.674863964073438,-529699.7000400954
-14259796.0,23.442605840726856,-524904.9530396945
-14259344.0,10.159662625562987,-520291.1535092975
-14260241.0,14.064167148187835,-515727.99197420455
-14261207.0,23.94385749965204,-511167.87872113043
-14262018.0,20.481930530431782,-506652.5332672512
-14261658.0,20.493966208752454,-502195.2579345787
-14262787.0,26.933248980219105,-497772.5553552329
-14264239.0,21.298838374739717,-493318.3298016806
-14264452.0,14.89716846090937,-488914.8965036638
-14264535.0,24.378765415656744,-484669.3308719611
-14265040.0,17.012160497712784,-480432.8875632415
-14267001.0,34.0236789587284,-476232.4753542751
-14266255.0,33.683442169141244,-472111.0672674002
-14268182.0,33.34660774744998,-467965.87326139223
-14268574.0,33.01314166997554,-463919.7978621123
-14269082.0,32.683010253275825,-459979.43321682326
-14270008.0,32.35618015074306,-456074.05555132293
-14270324.0,13.248447534813522,-452169.5649958097
-14270792.0,7.637543563746476,-448343.7026791837
-14271468.0,4.510733964044448,-444552.43231905974
-14271958.0,10.124279204453387,-440773.9913292012
-14272850.0,8.578581171982705,-436968.6680825771
-14272587.0,4.451753844427458,-433224.48140175134
-14272668.0,1.8324929301747943,-429563.23658773385
-14275107.0,7.559801624685406,-425903.27088852256
-14276000.0,6.064185258067482,-422193.8215129713
-14276439.0,32.36629978709789,-418647.3832978416
-14277292.0,11.403032051205855,-415112.4094648632
-14277848.0,0.6839274836506775,-411616.7020368806
-14278062.0,4.277525143978664,-408184.70168317785
-14277533.0,9.575348106206093,-404729.93799968
-14278302.0,12.613124633930056,-401309.6386196832
-14280282.0,4.098533692452975,-397902.3755668203
-14279526.0,19.761473279105758,-394492.8518111521
-14280946.0,7.097406996179643,-391178.58995970665
-14281305.0,8.29617884775962,-387908.0540601096
-14281932.0,3.1814163098108565,-384718.80685284245
-14282289.0,0.24246327455648498,-381576.2021176461
-14280627.0,3.244200448696347,-378276.94009646965
-14281858.0,14.066911379519297,-374982.33736217284
-14280558.0,16.81816548973984,-371684.0973218832
-14280924.0,26.157309095703567,-368269.92301533226
-14278853.0,22.033991028957416,-364845.057118511
-14279376.0,19.954993786707746,-361422.43988065986
-14278043.0,22.074558181024486,-357917.7154818533
-14277617.0,20.791820184613016,-354384.4549937008
-14277274.0,14.672912022390165,-350717.0271104317
-14276280.0,17.39645568545825,-346987.7735059934
-14274832.0,21.524970595048444,-343211.8957709335
-14276101.0,23.243590284695074,-339361.02681322413
-14275272.0,18.991417977413903,-335533.74987842585
-14276331.0,12.857440715602252,-331698.6623796416
-14276174.0,14.85099723985013,-327901.9257558452
-14274800.0,34.98497206663751,-324220.98983161885
-14276711.0,29.98499044142568,-320607.6965999706
-14277352.0,14.932278212827441,-317049.36963397084
-14277380.0,9.48318465315424,-313656.79260429717
-14276741.0,0.9908247464827582,-310344.2246782542
-14277239.0,4.842327167765006,-307173.7824314717
-14278577.0,35.14343060148644,-304079.961273823
-14278451.0,34.79199629547156,-301047.9949944187
-14280381.0,34.44407633251694,-298218.43171114055
-14280739.0,34.09963556919183,-295442.5807273631
-14280321.0,33.75863921349992,-292839.8215867555
-14281050.0,33.42105282136504,-290268.09003755584
-14282428.0,2.2627902371473283,-287751.9091371803
-14283396.0,6.01625851835297,-285280.7233791406
-14283819.0,12.863121241803356,-282935.99947868317
-14282419.0,16.17745846413527,-280583.05615056236
-14283725.0,18.713526811263137,-278331.8089223907
-14283740.0,18.13202528552074,-276088.99083316675
-14284268.0,5.288068265393122,-273860.434258169
-14286005.0,10.898747088058826,-271651.8299155873
-14286537.0,5.88364611770271,-269420.06161643146
-14285825.0,8.132302203867994,-267329.86100026715
-14285820.0,0.4783200542774466,-265115.2290569305
-14287501.0,12.099089663676295,-262932.74343302724
-14286821.0,9.06416778291873,-260786.58266536487
-14288084.0,14.632275762284735,-258659.63350537728
-14287581.0,11.132260729387554,-256495.7871703235
-14288683.0,2.992164458305524,-254360.24596528633
-14288973.0,13.552679967890299,-252207.31017230137
-14290507.0,8.238161802862805,-250098.4037372444
-14290317.0,12.055578610029443,-248033.5030332059
-14291807.0,2.3798030752836894,-246101.25133620593
-14292818.0,9.885561829024937,-244160.15548951176
-14292818.0,22.785703880709207,-242217.05393461665
-14293827.0,9.993831384531177,-240377.63339527047
-14294709.0,9.835604455528255,-238541.60706131777
-14295334.0,17.286968119206676,-236763.6909907046
-14295352.0,9.633287547458622,-235053.38741412965
-14297439.0,5.068830506522318,-233355.60353998837
-14297792.0,5.018142201457067,-231669.63083792245
-14297361.0,4.967960779442365,-230126.01786287717
-14298104.0,4.918281171647777,-228554.42435091443
-14299874.0,4.869098359931286,-227003.79677407132
-14299177.0,4.8204073763317865,-225382.67547299853
-14300031.0,7.3385261269474995,-223851.34871826853
-14301057.0,8.293587307937514,-222285.08523108586
-14301817.0,12.777213234464625,-220663.3177121071
-14302422.0,6.970354016243618,-219143.26786831996
-14302267.0,6.065359817861463,-217617.66852297072
-14303303.0,19.189823942230305,-216071.3251710731
-14303001.0,14.016946489231486,-214501.2785860303
-14304620.0,19.893762106183885,-212993.68246683604
-14304977.0,10.516063037855247,-211358.9123088337
-14306083.0,12.549130383746615,-209843.73985241327
-14305810.0,29.073448042308428,-208344.05245388913
-14306403.0,17.157951037345583,-206902.7785960163
-14306100.0,25.81906787134062,-205409.2508100561
-14307864.0,34.23362987853125,-203873.9916352895
-14308669.0,21.260143933714517,-202366.2517189366
-14308160.0,9.314475244264486,-200909.83920174724
-14310122.0,15.48834575068554,-199429.32414306185
-14310153.0,9.375101866094383,-197968.53090163122
-14311533.0,6.195401930001935,-196630.5122592828
-14311830.0,11.218223743489489,-195260.20713668998
-14312526.0,16.478510961871052,-193993.43839865515
-14312584.0,10.261393053910751,-192654.33734800256
-14314608.0,4.971063967219379,-191356.87730785648
-14313997.0,5.67533665478345,-190007.80853477793
-14314875.0,15.240497288938059,-188767.23044943015
-14317131.0,2.6182671496687817,-187588.55814493584
-14317455.0,8.27741298487058,-186418.67256348647
-14318013.0,2.929934839544785,-185326.7358378516
-14318682.0,10.436450877408106,-184248.05181280518
-14319213.0,18.6640571851799,-183184.23796134503
-14320262.0,24.210257466062103,-182065.72891506366
-14321195.0,23.49905216107345,-181000.07162591303
-14320840.0,2.8323758694241405,-179917.48757632182
-14322589.0,2.1452853602620507,-178869.1460338907
-14322872.0,10.574213355718939,-177802.87124021968
-14323965.0,2.7970718413200757,-176858.5925278175
-14323276.0,8.245646901895952,-175829.58993587142
-14325090.0,5.845785061974993,-174793.62736984665
-14324040.0,0.6055953457189389,-173803.1910961482
-14323908.0,6.792855267416826,-172634.6591851867
-14324344.0,9.908159407902303,-171457.06259333482
-14322914.0,2.130483322175678,-170244.74196740147
-14322261.0,2.1091784889538303,-168977.79454772745
-14322712.0,2.0880867040643807,-167596.4332689162
-14320821.0,2.067205837023721,-166124.63560289497
-14320361.0,2.0465337786533837,-164581.80591353207
-14321235.0,2.0260684408667657,-162939.3211877307
-14321271.0,2.0058077564581254,-161197.09464251943
-14321450.0,23.689334551655747,-159448.7070294282
-14320743.0,21.523399561514907,-157684.13662579996
-14321472.0,18.45338556560546,-155882.79525954195
-14322033.0,18.009462558658015,-154114.38397361257
-14322080.0,6.442598398083192,-152359.24013387645
-14321389.0,18.51774191952245,-150621.64773253768
-14323552.0,29.002088102983635,-148959.1812552123
-14324084.0,28.23660527978518,-147400.08944266016
-14325065.0,31.736088835322107,-145996.08854823356
-14325702.0,25.753228035562188,-144688.04432941912
-14326345.0,6.733098530122106,-143560.33055279098
-14327179.0,6.732839151263079,-142496.97724726307
-14328289.0,14.759707561573123,-141497.8408081244
-14329302.0,0.44065270553164737,-140578.19573337524
-14330234.0,17.61540113674573,-139757.24710937543
-14331491.0,12.433243616947038,-139014.00797161562
-14332248.0,5.360836978009047,-138354.0345585655
-14332978.0,5.077278808598976,-137805.4108796459
-14333661.0,1.4625433940625499,-137278.60677084944
-14334181.0,16.502932068403652,-136813.98736980886
-14333848.0,23.62687154527339,-136288.26416277682
-14335592.0,8.555199641121362,-135739.0481878151
-14335809.0,4.238317782072727,-135141.32437260484
-14336638.0,7.175232269756634,-134614.07779554484
-14337138.0,0.6037995173880972,-134056.60368425545
-14337336.0,2.431598339303946,-133504.2876474129
-14336859.0,7.454723335813924,-132883.41143760667
-14337335.0,4.091891766801837,-132207.5773232306
-14339156.0,9.0759965146799,-131477.2515499983
-14338419.0,10.259058079182978,-130649.56236783041
-14338697.0,7.01774234093773,-129857.31674415211
-14340179.0,7.6297630836882036,-129035.32691004453
-14339565.0,21.44016641604867,-128202.89030761013
-14340897.0,24.502562298987414,-127397.27807120193
-14341220.0,12.44754921466847,-126623.138623822
-14340353.0,3.6271931528638106,-125753.65723758379
-14342391.0,6.909200000118972,-124920.12066520794
-14343257.0,19.63950490458683,-124052.75279188981
-14343735.0,15.14404879614608,-123273.22526397092
-14344791.0,22.07994714393999,-122550.40967799726
-14345314.0,13.139708118165117,-121858.23891455124
-14345836.0,5.931545896422222,-121260.90652540574
-14346854.0,21.88699624638639,-120622.88079348563
-14347589.0,21.668126283922447,-120011.56865221683
-14348496.0,21.451445021083146,-119452.95296569465
-14349144.0,21.236930570872346,-118927.09010270375
-14349900.0,21.024561265163584,-118430.90253501067
-14349262.0,20.81431565251205,-117979.17684299451
-14351311.0,12.817848634026177,-117496.46840789665
-14351095.0,7.755570218793309,-117044.83705715164
-14351817.0,0.22711328524610508,-116599.72201991407
-14352594.0,9.175274061323535,-116104.89146638097
-14352857.0,13.610285382155325,-115617.34255171716
-14353935.0,19.755647100647366,-115111.41912619998
-14354892.0,11.47813441713788,-114588.88826827193
-14354983.0,18.87447263822378,-114117.91605225526
-14355867.0,11.541943364411736,-113646.57022506665
-14356488.0,8.691290832665345,-113126.27118948202
-14357214.0,12.9770099875891,-112609.25847758721
-14357719.0,16.060931639933415,-112095.16589281133
-14358212.0,1.5558204875728734,-111636.88090054927
-14357459.0,4.808358881307186,-111150.42875821168
-14359498.0,7.584641978569607,-110590.92447062956
-14359944.0,3.854631731719337,-110060.09855925535
-14359428.0,2.3788605487404766,-109593.7475736628
-14360573.0,0.07949386067957676,-109073.14343126012
-14361154.0,6.92566800467057,-108572.99533028147
-14361959.0,6.714828325860026,-108040.4320436447
-14361280.0,18.972893868791516,-107481.86105654221
-14362388.0,7.398546963152285,-106931.7924459768
-14363810.0,11.529575867659787,-106370.14118818307
-14363234.0,13.077170676181368,-105798.10644296728
-14363788.0,19.712315445915465,-105241.79204520553
-14364338.0,9.626668300028086,-104716.79079141951
-14364997.0,25.298936465761244,-104177.20621683927
-14367145.0,25.045947101103593,-103645.93415467087
-14367894.0,24.795487630092566,-103073.55814645626
-14368401.0,24.54753275379153,-102680.07256499169
-14369089.0,24.30205742625367,-102315.77183934177
-14369674.0,24.059036851991095,-101944.94745428232
-14369939.0,7.867770386913662,-101586.74797973949
-14370518.0,3.223288896109352,-101270.3804999421
-14370955.0,3.7148811273571027,-100922.67669494268
-14370176.0,7.943801158099404,-100562.44992799325
-14371181.0,3.243104592167583,-100163.82542871332
-14371759.0,3.656494060551722,-99759.43717442619
-14372185.0,6.271763461391174,-99376.09280268193
-14372990.0,5.4019147932176566,-99000.74854132115
-14373350.0,22.624719867701742,-98609.74105590794
-14373630.0,14.91035985710846,-98110.72697868281
-14374418.0,3.6240232445584297,-97584.28637556203
-14373869.0,17.357969547192624,-97044.19351180641
-14372993.0,17.21539817857547,-96452.16824335625
-14372385.0,9.144907908958885,-95817.31322758873
-14371734.0,11.168558733685359,-95113.64009531285
-14371091.0,11.98965114274597,-94346.58702769368
-14370831.0,10.10628359451789,-93504.45449074883
-14370130.0,13.749280696209325,-92580.7432791753
-14369763.0,15.683618680686095,-91625.76917971749
-14369875.0,24.124355678406573,-90573.76148792032
-14369878.0,18.314889060092128,-89475.77387304111
-14370029.0,2.4274193724472752,-88321.68280097673
-14370170.0,27.972196561502415,-87149.13263963301
-14370146.0,26.21086784427689,-85977.5579799046
-14370720.0,27.19382787546465,-84827.44906677159
-14371446.0,23.845937100442143,-83690.84124276992
-14371773.0,4.6041293434489035,-82664.51616367618
-14371844.0,2.1943480217735214,-81759.62100203942
-14371425.0,2.7875426381663146,-80918.02479201903
-14371768.0,2.7821374575828486,-80165.26121076489
-14372564.0,10.06857371585943,-79442.10859865724
-14374578.0,11.919206030063378,-78790.52084600463
-14375457.0,13.243026153760638,-78226.44897087854
-14375163.0,11.283854038020536,-77835.8511478358
-14375626.0,18.089679669154293,-77497.90930302348
-14375831.0,15.736017005257509,-77175.2635433272
-14375976.0,10.208169826551284,-76860.17757455997
-14375279.0,2.68337369354731,-76546.24246548228
-14375145.0,9.078400478913409,-76189.61337415955
-14376268.0,9.288971075804284,-75793.13390708587
-14375667.0,23.998380097180416,-75386.95256801501
-14376019.0,12.246588722460274,-74957.99970900091
-14377606.0,4.208890991199723,-74562.25304524486
-14376953.0,4.166802081287642,-74185.29718145845
-14378799.0,4.125134060474693,-73809.19420964386
-14379384.0,4.0838827198697345,-73323.43560088138
-14378780.0,4.043043892670994,-72891.6179115386
-14379284.0,4.002613453744061,-72441.20173242321
-14381365.0,11.313501080816422,-72021.62304843294
-14381504.0,1.5694113535153065,-71614.57348461465
-14382169.0,2.785223990064196,-71376.67774976851
-14382726.0,0.14231637551688436,-71135.66097227082
-14382005.0,0.37264269876459366,-70952.47102921415
-14382881.0,13.586019985909388,-70784.77965225597
-14384364.0,3.0069379525589284,-70635.84852239945
-14384387.0,12.764032681775916,-70480.5733705094
-14385168.0,13.507032140397769,-70393.35097013826
-14387278.0,1.2502207881000231,-70254.50079376897
-14388286.0,1.1838642430432174,-70084.28911916523
-14389144.0,3.71105428901933,-70090.02956130753
-14389791.0,7.746713353363475,-70139.2959323605
-14390594.0,1.8581959406819806,-70251.23630637085
-14391263.0,16.195562729999665,-70250.89060997318
-14391955.0,21.510836786058462,-70305.88170387346
-14392655.0,10.026236045688165,-70374.32288683472
-14392749.0,13.949457318217355,-70486.07965796637
-14393422.0,0.9352180852995389,-70608.63552805275
-14393973.0,1.8131127635138,-70724.88250610618
-14394710.0,2.012829188669002,-70772.46701437907
-14395209.0,13.621457472421298,-70863.57567756737
-14395944.0,6.190208919735369,-70950.1065874596
-14396800.0,6.373604732693593,-70901.52218825104
-14397571.0,31.276483009234425,-70830.67363303457
-14398734.0,79.91224129987722,-70760.36689670423
-14399758.0,96.60113370096815,-70701.09656107114
-14400369.0,87.27435822618918,-70672.41892879439
-14401011.0,53.805964645650874,-70673.6114061725
-14401977.0,3.238500570626684,-70668.04195877681
-14402454.0,29.903786789804826,-70657.694872523
-14402463.0,37.96780221956624,-70720.11792379778
-14404791.0,85.65267830555945,-70765.58341122585
-14405157.0,31.362058372282036,-70765.42757711359
-14406224.0,13.152417689113008,-70897.8566346764
-14406940.0,19.28803869508829,-71017.87806832964
-14407525.0,9.305052578972436,-71164.36595431238
-14408218.0,0.9035230000627053,-71297.72229476925
-14409618.0,0.29304353126735805,-71414.24507182156
-14411991.0,2.6514836895200915,-71490.4359544373
-14413569.0,20.982416831233422,-71597.19826155897
-14413696.0,13.03316225982735,-71849.72627894337
-14415137.0,12.902830637229272,-72177.72901615394
-14416624.0,12.773802330857052,-72432.53505932636
-14419226.0,12.646064307548613,-72765.12637539914
-14420632.0,12.519603664473152,-73217.5584449791
-14422262.0,12.394407627828514,-73688.29952719536
-14423807.0,12.270463551550392,-74240.99986525736
-14425178.0,39.55313589453135,-74835.08986660479
-14427015.0,45.28194437165189,-75492.3223012727
-14429478.0,41.49285292192553,-76208.48241159206
-14432125.0,31.896944166628828,-77012.81425414405
-14434742.0,35.52757007597302,-77897.68611160261
-14436631.0,23.127506435323767,-78796.54258381868
-14440637.0,16.53191839969986,-79772.9938246484
-14443817.0,10.02599553963978,-80886.51388640191
-14446473.0,3.6695652055077517,-82202.6487475379
-14448312.0,6.742196804786317,-83646.70559339461
-14450134.0,1.3836514382323912,-85080.82187079462
-14452241.0,16.51667172055636,-86536.68031875273
-14454276.0,31.52456464262991,-87993.9801822331
-14456513.0,24.52291163295422,-89483.54038041078
-14459187.0,30.464336771351327,-91013.53830993875
-14461954.0,13.235416668340577,-92561.56959350727
-14465080.0,17.024818760307653,-94111.7038975722
-14467313.0,10.067153452632283,-95656.33685859648
-14469994.0,12.931937541311072,-97227.94015667656
-14472520.0,31.68241923011442,-98812.49408844375
-14474862.0,44.352504255727126,-100270.78581422535
-14476998.0,10.537872420921076,-101659.99462274915
-14479491.0,1.2138510008437606,-103009.14467652165
-14482161.0,9.757191947519914,-104369.55322975644
-14484782.0,6.156250241332373,-105772.27436412677
-14487364.0,9.54700854766429,-107207.8849538176
-14489754.0,1.1028091517396206,-108677.97277094734
-14491970.0,13.479462083570297,-110162.1097099039
-14494305.0,11.573800759497317,-111607.73861280487
-14496507.0,12.6789804286675,-112992.99456001077
-14498026.0,0.9747548031975839,-114298.48128107672
-14499796.0,10.848747896006898,-115588.3298015999
-14502739.0,11.987356672881106,-116768.44650358391
-14505053.0,15.375627659281918,-117873.76203854807
-14507555.0,12.992889863097162,-119018.10775149468
-14510268.0,5.515930873370962,-120165.84334064764
-14512219.0,2.161563521169228,-121302.8515739072
-14514856.0,7.198170887212882,-122432.07305816813
-14517096.0,12.877265912102075,-123494.1689942525
-14518626.0,1.5435566891585495,-124550.22730430997
-14519681.0,11.215511133095333,-125583.22503126688
-14522749.0,32.800857462578506,-126548.72611428816
-14524665.0,32.47284888795252,-127397.90551981132
-14525089.0,32.14812039907292,-128310.75979794716
-14526975.0,31.82663919508218,-129247.56886663374
-14528993.0,31.50837280313135,-130062.8431779674
-14532805.0,31.193289075099983,-130781.88141285563
-14536878.0,30.881356184348988,-131469.06259872706
-14539494.0,14.931086651128226,-132258.53863940583
-14541809.0,12.88828920402284,-133153.45325301177
-14544576.0,9.306310243702228,-134094.8353871477
-14547395.0,8.841723388342643,-134999.97036661019
-14550192.0,12.115547461080268,-135939.97066294408
-14551486.0,3.9056241627940835,-136977.98762298067
-14554610.0,12.479284524760715,-138150.7910800848
-14556102.0,21.68301606546538,-139164.03316928397
-14558574.0,8.02666178710001,-140267.80950425717
-14560623.0,15.276437568208621,-141449.5480758825
-14564340.0,14.90870105253748,-142668.30259512368
-14566232.0,8.232092110635904,-143877.45290250453
-14568053.0,2.3347322099725716,-145066.5950401474
-14568722.0,0.2764092833676841,-146062.09575641196
-14570757.0,9.863018136635219,-146981.39146551388
-14576062.0,8.723177465122035,-147754.32755085875
-14578010.0,18.587904638001646,-148458.53427535016
-14582069.0,7.355459616558392,-149362.86559926457
-14584768.0,2.659491078559313,-150187.40360993796
-14587599.0,4.158615718587043,-151234.11290717253
-14590664.0,5.337093510974,-152234.93844476686
-14591460.0,4.493729357777966,-153337.33906031918
-14596150.0,5.68385549908885,-154478.13233638203
-14599176.0,11.85340674083136,-155503.1010130182
-14601815.0,6.986125839441456,-156598.90333622196
-14604321.0,3.0618809512923235,-157778.2476361937
-14607007.0,8.181012022836057,-159013.96515983177
-14610165.0,8.099201902607547,-160390.40884156554
-14613242.0,8.018209883581449,-161807.33808648383
-14616532.0,7.9380277847456,-163031.18137228503
-14620000.0,7.8586475068980235,-164336.86955856218
-14621776.0,7.780061031829064,-165565.41752964447
-14626342.0,10.426742929276998,-166845.76335434802
-14628989.0,6.317623286485059,-168025.38905413664
-14632081.0,1.4908006629170814,-169318.30183026317
-14634830.0,14.300158737471293,-170752.53547862658
-14636840.0,10.851239748044463,-172039.2601238403
-14639435.0,13.477770253837207,-173290.03418926793
-14643925.0,12.086269151097213,-174475.88384737525
-14647395.0,10.759940319187308,-175657.2916755694
-14650987.0,3.853467169348278,-176977.21875881372
-14655267.0,4.800068532728574,-178309.9465712256
-14658062.0,2.6671259847294095,-179672.26377217937
-14661805.0,0.35286058234851225,-181103.45780112362
-14665535.0,13.114741425151351,-182464.25655644634
-14668855.0,1.6485921248565774,-183975.3639908819
-14672042.0,2.835073490611194,-185401.693684307
-14675182.0,7.571309167306026,-186869.84341412998
-14679486.0,14.131846256950212,-188331.22831332264
-14682284.0,0.8693574493397591,-189810.58269685548
-14685188.0,14.010760686848243,-191466.31020322087
-14686773.0,2.3532891022566673,-193122.39710118866
-14690702.0,7.211499329117487,-194629.75646350888
-14691938.0,11.142510396241278,-195964.9588988738
-14693294.0,6.286778099462026,-197314.892643219
-14694583.0,20.24717185468421,-198397.66038345287
-14697177.0,6.213394407403939,-199349.68377961832
-14698134.0,4.108675728581375,-200087.68694182215
-14699174.0,4.993231481040084,-200723.64340573788
-14700217.0,1.7276523829893904,-201156.32363834654
-14701281.0,2.3001056224557033,-201405.76040196308
-14702384.0,3.4416172593873853,-201477.95279794344
-14703417.0,5.288196290807946,-201279.423269964
-14704070.0,7.960384450477477,-200941.62903726436
-14705299.0,6.4967062441130565,-200451.29608022567
-14705756.0,11.71377738300066,-199888.19978608945
-14707174.0,6.207294067779912,-199105.73445489645
-14708928.0,2.3649484441029927,-198266.1771103475
-14710261.0,5.243663747174196,-197440.18200591006
-14712811.0,14.25325169527855,-196661.196852517
-14715163.0,13.222554203402751,-195784.9182173258
-14718537.0,1.7892901908701333,-195050.15236848648
-14720188.0,20.15432458262785,-194432.06751146767
-14722006.0,0.8494268533397644,-194014.41350301905
-14723259.0,8.881104598739512,-193649.85270132282
-14725185.0,8.71345658207747,-193348.52084097563
-14726797.0,45.56228791878175,-193068.53563256588
-14727504.0,6.106934256706836,-192897.43360957416
-14728729.0,18.98044433279074,-192759.95927347842
-14731186.0,18.790639889462682,-192644.69301407758
-14735574.0,13.19705899413134,-192514.4960839368
-14738944.0,14.484093140295045,-192444.18445642953
-14742093.0,5.7261574515207485,-192629.15927853313
-14744569.0,0.327454774667558,-192880.6176857478
-14744490.0,16.837769192938595,-193195.97817555637
-14747255.0,4.110172236232529,-193426.7683938008
-14750162.0,13.188842355044244,-193524.2507098628
-14751546.0,21.48365687138721,-193693.09153609813
-14751863.0,12.414859907094524,-193998.0772874032
-14753477.0,17.625148546512037,-194254.84651452917
-14756143.0,29.95937138164618,-194401.13138271784
-14757307.0,0.41790466969428053,-194621.5367355567
-14757694.0,7.167584531825696,-194959.82136820114
-14760144.0,7.367937761797975,-195186.97315451913
-14761805.0,11.971295020413208,-195078.4367563079
-14763277.0,3.4511102337241937,-194894.31905541086
-14763859.0,9.826715339586144,-194588.0425315228
-14765019.0,10.338536227277018,-194207.74543954153
-14766409.0,9.657182184630528,-193873.1679851461
-14766962.0,11.485100927952544,-193414.7696386286
-14768729.0,5.511244923953882,-192834.53860890836
-14769908.0,0.9806307714316063,-192190.85988948532
-14768892.0,2.8692541764169164,-191674.45129059046
-14771922.0,0.7365122080830133,-191042.2901110185
-14773123.0,2.801402200637085,-190278.95054324224
-14773571.0,11.001438042194422,-189594.07770447587
-14773417.0,1.9798205078541287,-188983.8869274311
-14773894.0,2.4855210408486528,-188200.13139149075
-14775755.0,7.284418795214151,-187298.63007757583
-14775090.0,0.16225040514086686,-186310.39377680008
-14776775.0,4.266762023144338,-185383.20650569812
-14777154.0,3.149843636095511,-184424.0411073072
-14778111.0,4.114139278399307,-183443.63402956806
-14777787.0,2.3220779743228377,-182458.53102260633
-14777620.0,0.06795487201998185,-181374.8623790463
-14778459.0,4.135554870505757,-180302.36375525585
-14777797.0,4.511337705999267,-179156.75678436933
-14777391.0,4.640002258043523,-177853.93921652564
-14779601.0,3.764547672232311,-176464.8998243604
-14780481.0,0.34901227917657707,-175120.41749278468
-14779623.0,0.4045527086898346,-173871.71331785683
-14779425.0,4.917547387035938,-172608.57951801035
-14781220.0,7.686007241781908,-171260.24372283023
-14780618.0,7.609147169364178,-169941.47461893587
-14780434.0,7.533055697670534,-168546.97653941254
-14780794.0,7.45772514069381,-167150.1734406863
-14781399.0,7.3831478892868745,-165743.17170627945
-14781611.0,7.3093164103941035,-164336.32332254873
-14783730.0,0.5408096405660672,-162993.12675599116
-14782467.0,7.064290437322825,-161681.8621550973
-14784187.0,5.931387312404922,-160454.21020021237
-14784771.0,6.014849574065465,-159288.91809821024
-14784293.0,3.211876806427199,-158078.19558389604
-14786155.0,9.914477600591226,-156888.41362805708
-14786866.0,3.2041816469941296,-155748.5294917765
-14786205.0,5.206570138369216,-154663.87753019083
-14787453.0,9.988421335059229,-153598.15542155682
-14788586.0,5.95044758963445,-152582.8405340073
-14788414.0,0.727490444023033,-151611.92879533325
-14789437.0,13.025059205441266,-150730.80950737992
-14790292.0,7.76470239892592,-149822.41807897403
-14789901.0,5.396424122144936,-148976.36056485033
-14791068.0,10.208722926257678,-148106.09695920182
-14791406.0,6.099925643458391,-147171.86932294376
-14790330.0,4.889772309052887,-146212.06729638038
-14790305.0,7.73490018689472,-145253.02995675054
-14789668.0,3.495676096897796,-144263.74965718304
-14788664.0,12.285050942360613,-143166.9454939433
-14788351.0,10.117863606512856,-142023.8593723378
-14788670.0,8.700984653140495,-140753.95411194838
-14787748.0,5.267699530998698,-139447.33123749495
-14787436.0,6.896918327111052,-138047.60792511998
-14788351.0,6.5847865890884805,-136647.54851253482
-14787828.0,4.123211397480873,-135146.98969407738
-14786769.0,2.5639580935521735,-133616.1031304687
-14788682.0,11.652620239399994,-132074.60876583192
-14788649.0,22.550348795006812,-130588.94601150569
-14788024.0,7.301941508989785,-129090.88988472459
-14788523.0,1.3521896458305491,-127649.39765254338
-14790231.0,0.2434835629110239,-126234.90367601794
-14790811.0,3.7621230450386065,-124887.63797259172
-14791260.0,4.501898441400954,-123768.84492619976
-14791720.0,11.288414072954765,-122710.0731436038
-14792203.0,7.143537111681098,-121725.38907883382
-14792074.0,7.76416341347317,-120788.88518804547
-14794393.0,13.252069596579759,-119934.82966949897
-14795021.0,0.659931409551973,-119106.73137280397
-14796086.0,6.954005543213043,-118462.74739240989
-14796282.0,8.756466665549624,-117833.95325181787
-14797044.0,0.019744900278737987,-117327.44705263365
-14797432.0,5.143159543843012,-116800.75591544127
-14798122.0,5.091727948404468,-116332.33168961895
-14798144.0,5.040810668920358,-115900.92503939067
-14798067.0,4.990402562231111,-115394.91578899676
-14798350.0,4.940498536608629,-114850.2166311068
-14798935.0,4.89109355124242,-114275.38113146178
-14799591.0,1.822138193187584,-113685.12732014716
-14800925.0,1.541538692247741,-113120.02604694568
-14800226.0,10.477423108295852,-112604.49245314227
-14800688.0,13.525779049245784,-111964.5308619448
-14801045.0,0.34978925823838836,-111317.13555332535
-14802468.0,2.2262076910303676,-110607.2141977921
-14804246.0,6.80648833703458,-109898.05872248023
-14804766.0,5.803376993410211,-109251.07813525543
-14805556.0,3.6612738144849573,-108726.40068723683
-14806377.0,2.914305249026029,-108197.38668036446
-14807050.0,5.44812411983321,-107734.91281356082
-14807940.0,4.705613682242074,-107343.64701875916
-14807751.0,8.62001748369903,-106995.21054857157
-14809726.0,2.4565114778004045,-106659.9251097519
-14810525.0,6.611892256160672,-106289.07585865438
-14811640.0,12.352992860981658,-106017.85176673389
-14812173.0,5.785284086278352,-105777.42324906655
-14812777.0,5.590146442207015,-105612.56568324378
-14812010.0,9.714917706522783,-105470.19002641135
-14812582.0,6.864615773467449,-105224.23812614723
-14813205.0,1.8285128023146626,-104866.6624115518
-14813894.0,2.7605736259433797,-104485.57912077024
-14814397.0,2.198954282749355,-104078.13999622858
-14814996.0,1.2183826622917877,-103663.77526293234
-14817729.0,2.843710226745543,-103239.38751030302
-14818884.0,12.784786417240639,-102810.74363519998
-14819873.0,1.7885222182342204,-102598.38619884798
-14820442.0,8.799147173789834,-102335.5690035274
-14820663.0,8.711155702051883,-102091.21331349213
-14822012.0,8.624044145031348,-101803.80118035722
-14822648.0,8.537803703580948,-101506.84650188574
-14823381.0,8.452425666545196,-101311.69470353478
-14824109.0,5.357680461561586,-101137.41108983153
-14824615.0,2.437620741526189,-101009.70364560111
-14825170.0,5.272483627444672,-100908.27327581115
-14825987.0,8.811224453955901,-100792.60720971909
-14826880.0,0.9355166712450682,-100682.4311376219
-14827884.0,5.090326559111418,-100591.52349291359
-14828443.0,3.0740335273251276,-100348.19159131654
-14829435.0,2.3137066739011516,-100094.70967540337
-14830117.0,2.513806661645731,-99807.92924531724
-14829533.0,2.4886685950291394,-99559.26661953011
-14831656.0,4.859058844199126,-99302.84062000086
-14830714.0,4.041441169930749,-98985.22888046876
-14831765.0,16.091841771638883,-98667.54325833012
-14832455.0,5.688152025179306,-98370.45115908077
-14834520.0,4.705040854244544,-98024.74664748996
-14833711.0,12.27781778966255,-97697.83251434714
-14834359.0,3.550185155709187,-97432.60418920367
-14835921.0,7.811122179172344,-97155.94481397954
-14837035.0,4.121478060222216,-96821.05203250579
-14837692.0,9.82741817674787,-96522.59151218073
-14838461.0,9.110628783921129,-96273.36559705893
-14839588.0,0.5081566081976234,-95998.7152744223
-14840388.0,1.0586476551916348,-95782.72812167807
-14840955.0,6.387676586846965,-95614.15084046128
-14841603.0,6.976860633136766,-95464.17599872271
-14842133.0,2.7054877462267086,-95284.45090540154
-14841986.0,10.063767567541618,-95151.43972968147
-14840461.0,5.24341284979414,-94962.2586657186
-14841499.0,2.3531354765011656,-94670.30274572746
-14840669.0,1.3582170228373798,-94318.59971827018
-14839939.0,4.928198955445396,-93887.83038775352
-14839243.0,18.177167031478348,-93327.28541720995
-14838758.0,14.217716603117196,-92636.01256303785
-14837698.0,2.2537398536994715,-91838.90243740747
-14837347.0,18.161962599692288,-90945.26341303339
-14838043.0,0.5196666808171813,-89907.06077890306
-14838136.0,14.0407709577903,-88812.57350444798
-14838422.0,5.517703890080838,-87681.7811027356
-14838549.0,8.55451031106304,-86516.04662504219
-14838787.0,14.153893017183009,-85385.80282545781
-14839231.0,6.497134594978206,-84277.44479720324
-14839484.0,8.83892121552526,-83208.67034923121
-14838598.0,0.24638393809368608,-82219.7503124068
-14840542.0,0.24392009871280607,-81295.05280928273
-14840784.0,0.2414808977255234,-80444.185614522
-14841583.0,0.23906608874813173,-79747.99375837678
-14842144.0,0.23667542786051854,-79119.34715412695
-14842595.0,0.23430867358183605,-78623.15368258569
-14843629.0,11.352799476615019,-78178.67214575983
-14843745.0,13.461102785122648,-77776.21875763619
-14844276.0,1.792857483952048,-77456.20657005983
-14844541.0,4.778954436073718,-77125.22783769133
-14843853.0,3.0024715005874896,-76795.97555931442
-14844245.0,1.9384653856893692,-76482.84913705524
-14845871.0,5.185182516933537,-76175.43731235072
-14846044.0,2.806666883673415,-75856.18293922722
-14845939.0,10.925371936944202,-75629.87110983494
-14846567.0,0.9638511105542875,-75323.3223987366
-14846432.0,1.7224658014936267,-75008.42250808318
-14845962.0,0.41003778441381655,-74630.08828300235
-14844860.0,5.072513795437999,-74201.95406683837
-14844878.0,13.965677878540646,-73740.51785950395
-14845060.0,3.4030534001635715,-73122.3626809089
-14846753.0,1.7965783946165175,-72500.72238743377
-14847133.0,4.227313708633119,-71876.29849689151
-14846711.0,15.492806272262214,-71363.0355119226
-14847150.0,14.024443556520737,-70855.82182347128
-14847723.0,1.503258696984858,-70363.26360523657
-14848065.0,9.867991048072781,-69766.2143025163
-14848329.0,0.24901275175716364,-69217.21882615903
-14849055.0,6.343486265821639,-68693.46330456348
-14849548.0,1.7177355900507791,-68196.9453381839
-14850321.0,5.492516673123646,-67772.72588480206
-14850860.0,4.259951862940852,-67393.83195928799
-14851588.0,6.522873328340893,-67158.31030636115
-14852149.0,3.4837913693263545,-66970.06053663148
-14853218.0,4.436088204309954,-66844.35993126516
-14853565.0,13.925999121748191,-66629.08299861856
-14854226.0,17.907350451132515,-66501.54216863237
-14854638.0,14.76860982365406,-66372.52674694604
-14855450.0,1.9437410343789452,-66298.46814614449
-14855615.0,7.264171153445659,-66211.73346468304
-14855953.0,15.755813819766672,-66165.03279670226
-14856385.0,3.589852169730875,-66110.54913540129
-14856860.0,5.405468383348079,-66024.27697738123
-14856206.0,7.209660534286741,-65918.86754094137
-14856663.0,2.6750367161423583,-65765.01219886405
-14858409.0,9.014186345206554,-65590.94541020936
-14858904.0,2010.0012755574958,-65374.369289441216
-14859452.0,7.322835770743495,-65242.29226321285
-14860096.0,8.63582678331477,-65063.702673914675
-14860485.0,8.549468515481749,-64903.64898050762
-14860807.0,8.46397383032695,-64743.77915737045
-14861110.0,8.379334092023782,-64583.59136579675
-14859769.0,8.295540751103772,-64357.33878547087
-14860213.0,8.212585343592764,-64119.598730950114
-14862149.0,0.1687285400721521,-63882.90274364061
-14861763.0,5.414493221694556,-63652.74038287025
-14862268.0,10.588474532709142,-63464.37964570946
-14862739.0,5.6470497393481764,-63286.90251591841
-14863242.0,15.918828869147774,-63104.70015742527
-14862254.0,23.19954283886159,-62795.23648918497
-14864211.0,5.752915310634307,-62486.86745762708
-14863309.0,2.382605428786974,-62177.8321163829
-14865653.0,15.040705438735358,-61823.80379521907
-14866054.0,0.7185276451780283,-61516.06575726688
-14866612.0,0.2222792019233566,-61331.57176636212
-14867366.0,2.606844306939138,-61182.33938203059
-14867380.0,5.420858849420711,-61054.26598821028
-14868549.0,11.105233823612252,-60965.05666166213
-14869106.0,0.8833277871694918,-60823.489428379464
-14869575.0,1.2301569704575286,-60748.58786742776
-14869918.0,15.99115264306647,-60710.93532208744
-14869454.0,4.962611519756138,-60702.65930220052
-14869893.0,3.9697156881577484,-60665.29937584456
-14870210.0,16.628451839707395,-60612.89638208611
-14868878.0,11.931817031519358,-60555.434084931294
-14869887.0,15.276312345366023,-60422.87974408198
-14868938.0,12.64252214214389,-60171.48427997512
-14866585.0,18.06081334522969,-59810.10277050932
-14866750.0,26.004678189554625,-59400.83507613632
-14865620.0,26.27579309315456,-58755.49339204286
-14864431.0,23.776610838588113,-58101.68845812243
-14863207.0,21.189923703542718,-57276.58824020725
-14862535.0,10.665628730864228,-56314.23902447122
-14862008.0,14.030772472063973,-55230.51330089442
-14861622.0,41.928892469263246,-54091.541501217565
-14861722.0,54.90991325330515,-52893.5427528733
-14861616.0,19.03919563510408,-51683.690658676656
-14861116.0,0.7693570028266095,-50478.10375208989
-14861231.0,3.7584197113362734,-49284.07271456899
-14861597.0,12.573407569598203,-48179.4819874233
-14861385.0,15.5638012215029,-47073.27050088302
-14860563.0,26.21366477438187,-46142.62112920815
-14860945.0,32.89976925963697,-45235.02825124816
-14862378.0,19.754005826895536,-44429.76130206963
-14861361.0,17.143128956979126,-43729.63035571498
-14862953.0,5.536660693555859,-43138.50071882574
-14863581.0,12.993907696928545,-42694.03237830353
-14863863.0,12.86396861995945,-42345.84205452049
-14864242.0,12.735328933760002,-42077.300300641335
-14864742.0,12.607975644422595,-41843.27729763492
-14863519.0,12.481895887978453,-41612.094524658576
-14865394.0,12.357076929098866,-41416.3902460799
-14865591.0,8.410886122055217,-41281.9763436191
-14865073.0,6.57741585639792,-41189.32324684895
-14865381.0,11.999709211743493,-41123.26334771442
-14865292.0,13.76208177558874,-41045.03071423728
-14864188.0,7.812625850200675,-40962.16374042699
-14864572.0,1.2079435853584073,-40861.87543635668
-14866048.0,3.8514380148328655,-40696.09001532706
-14866568.0,14.279760233181378,-40484.045781839835
-14866821.0,11.580103339907737,-40284.78865735539
-14867245.0,15.710617688324419,-40107.357437447885
-14867056.0,8.920151309340554,-39952.783863073404
-14867620.0,0.6868997114288504,-39787.75602444267
-14867432.0,4.974746915754167,-39598.461797532196
-14867375.0,26.227177992816678,-39394.310512888966
-14868306.0,18.51848438148818,-39171.28407442798
-14868157.0,2.4353103487924272,-38966.154567015794
-14866595.0,30.928709555740852,-38754.82635467959
-14867823.0,38.742737618567844,-38596.44475779884
-14869133.0,44.831145002640596,-38449.23031022085
-14869795.0,28.745134487793166,-38303.48800711864
-14869624.0,27.16212457193228,-38177.53646038141
-14868395.0,58.41004699415225,-38009.5110957776
-14867335.0,122.34047841135975,-37822.08265148587
-14867096.0,129.08026750431145,-37555.44515830497
-14865894.0,115.46476929252799,-37187.39070672192
-14864188.0,44.55852019941108,-36792.2667996547
-14861574.0,174.42993149878907,-36296.177464992106
-14858732.0,82.45939323351581,-35647.215690342186
-14855297.0,41.66311707805335,-34802.576866770854
-14849690.0,57.05145948565746,-33696.967764771056
-14844644.0,10.936061453232242,-32288.331420455434
-14836545.0,10.826700838699935,-30426.531439584833
-14830426.0,27.28072451268872,-28081.516125188984
-14827125.0,13.1053020436932,-25093.28429727105
-14822868.0,29.844531188852216,-21616.768120964385
-14818330.0,183.68503089635533,-17961.433773088695
-14813161.0,341.11818995574026,-14076.236102023853
-14807530.0,394.732003077577,-9871.64040766966
-14803072.0,271.8574925825312,-5378.507336926918
-14799644.0,89.73567076811787,-603.2222635576481
-14794557.0,66.67035389537773,4277.976625743974
-14791028.0,219.41150636509178,9159.196859486536
-14788545.0,355.4841921156567,14129.27155755958
-14784141.0,286.92144929439905,18876.478841983982
-14783013.0,106.01891850115635,23362.630720230187
-14780349.0,55.642010231260656,27504.254413027884
-14777922.0,176.25561782457385,31180.29520223156
-14775101.0,215.27359916424848,34766.49225020924
-14772119.0,216.2429211175588,38164.32732770714
-14768897.0,163.7218517571796,41385.10072109612
-14766371.0,99.65505596301432,44391.4163805512
-14764049.0,19.793867256555586,47166.91888341359
-14761839.0,57.31721929301466,49753.6663612455
-14758608.0,30.081067175060753,52222.37969763305
-14757987.0,82.18468816387849,54426.65590065672
-14756654.0,237.34340742900326,56584.0560083162
-14755127.0,320.819269669448,58564.71544823304
-14754258.0,253.0627279614962,60269.65162708466
-14752572.0,142.4344189840308,61990.78844414777
-14753372.0,38.99963735914571,63545.1305597063
-14757523.0,5.005813708038659,64881.679254109236
-14760463.0,15.595650356102624,65969.7791282342
-14762429.0,73.05122292922078,66526.4146702858
-14764541.0,163.05595535405723,66563.98385691503
-14767094.0,276.8504307791179,66226.84401834587
-14769433.0,188.93540355365917,65523.57557816242
-14771622.0,92.59406722973404,64430.42315571475
-14773588.0,56.48621089280596,62884.035590823645
-14775686.0,127.2362653072455,61118.94523491541
-14776631.0,155.78746308601967,59096.589115900206
-14778864.0,197.5970644023896,56792.373224741204
-14779977.0,206.36429617827412,54360.032825827744
-14777832.0,189.32895131639225,51851.93249756947
-14775000.0,179.5357798012974,49368.91317259378
-14774869.0,6.17964585497316,47182.80737419993
-14773356.0,6.11784939642348,45499.56263379189
-14772126.0,6.0566709024592456,44007.90034078792
-14771882.0,5.996104193434576,42833.238004046085
-14771696.0,5.936143151500119,41985.57229067167
-14771847.0,5.876781719985047,41361.63323443286
-14772382.0,162.51313902666197,40926.35023542062
-14772361.0,106.83472550977785,40659.25339973432
-14773275.0,109.09234600882064,40529.74419906907
-14773652.0,133.01551428599942,40478.530090412336
-14773728.0,9.135653796083716,40453.494789508215
-14775042.0,224.49989380590114,40397.29317494709
-14775737.0,358.81459281509865,40335.32024319762
-14775483.0,349.4135982240198,39928.46704076564
-14775356.0,254.45295042787507,39488.599037024025
-14775426.0,227.6846387735975,38921.213046653786
-14780059.0,234.82607674602787,38252.250916187244
-14787086.0,236.65117703973056,37569.64507369142
-14793832.0,230.75294248746286,36512.53195628846
-14801083.0,200.1203510136463,34880.40663672558
-14803555.0,183.50790812567539,32742.352570358322
-14805573.0,210.5144253090691,30023.17904465474
-14805016.0,109.13030285548302,27199.613920874235
-14801525.0,3.051010738446166,24435.701114999447
-14797226.0,47.36789886952579,21705.7607705155
-14790892.0,69.37684606261746,19281.786496144297
-14784058.0,23.395803574954016,17266.468631182855
-14779815.0,142.72825354705674,15804.970611537072
-14775071.0,100.52596368012291,14932.33757208961
-14776337.0,130.4930002515273,14422.014196368713
-14775809.0,193.06107723531863,14587.960721071071
-14775607.0,167.85641949112755,15381.83111386036
-14773968.0,104.05298571760432,16746.762802721758
-14774996.0,120.40394729512855,18702.29517469454
-14776796.0,146.2122308002531,20844.272222947595
-14781477.0,103.28577094689308,22964.82950071812
-14785662.0,24.13552202028245,24965.097872376984
-14789767.0,10.623704539108076,26386.113560321122
-14795802.0,171.1098776786023,27085.919091383956
-14800590.0,219.07042204275012,26908.809900470114
-14807748.0,67.15591703916539,25661.055134799368
-14814069.0,65.09729386863864,23673.194583451375
-14821496.0,42.524908897198884,20818.879304282906
-14826819.0,52.707131267623254,17422.357177906124
-14834541.0,83.99574310477078,13424.050272794972
-14840657.0,162.50064473903308,9022.143103399114
-14849272.0,178.40216139020572,4020.7550056990767
-14856514.0,121.50337013635772,-1440.2858776918683
-14863445.0,87.10797983810244,-7414.299685580995
-14869912.0,97.2355531301705,-13593.240022059139
-14876829.0,271.4917789373942,-19939.224288504593
-14881914.0,268.7768611480203,-26418.582045619547
-14884319.0,266.0890925365402,-32906.64622516335
-14887414.0,263.4282016111747,-39354.579762911715
-14889750.0,62.601784836409706,-45341.950631948646
-14890558.0,26.3323199142028,-51000.614458963115
-14891531.0,20.9025465951745,-56178.44164770744
-14891602.0,10.209603215019797,-60928.24056456246
-14890090.0,27.37224949935444,-64987.04149225079
-14885909.0,35.329387081598725,-68495.58774399433
-14879031.0,31.7527737973885,-71263.38186655438
-14865399.0,82.53212913959624,-73000.33138122279
-14855315.0,75.80418459663179,-73569.16140074452
-14843238.0,68.07456977649804,-72926.71978673707
-14838237.0,67.34209067602774,-71047.61925553574
-14831098.0,76.22815115018784,-68096.89306298038
-14829681.0,97.87919140921213,-64308.590799016616
-14829489.0,261.75760757477565,-59633.58822436041
-14829728.0,794.5506064616784,-54144.0023421168
-14827624.0,768.8419356691302,-48529.478985361675
-14825300.0,120.01076559983903,-42955.10086217597
-14822929.0,165.1498570771082,-37281.04985355421
-14822257.0,115.30215798503741,-31509.072688350752
-14820699.0,512.8329477964808,-25945.648628135154
-14818625.0,720.029514581061,-20955.025475185892
-14818500.0,786.1248046864848,-16551.14188710194
-14817126.0,920.0282155919663,-12685.13046823092
-14819053.0,889.1139017006153,-9524.445830214656
-14819567.0,707.9405910837386,-7062.034705246464
-14819286.0,670.9391905757379,-5326.581024860045
-14820496.0,653.7545626438532,-4294.565214611444
-14821726.0,505.84031644818333,-3408.786229131376
-14822902.0,354.56787986847803,-2625.2817001740164
-14824370.0,159.0564865401243,-2107.528883172276
-14824127.0,97.29400391592958,-1886.6202610065989
-14822270.0,300.6411716961936,-1865.5040583965329
-14819421.0,552.731973725964,-1900.5990178125676
-14815704.0,499.4559410465956,-2012.5096943023502
-14811046.0,514.5029115824509,-2058.7179306914186
-14807315.0,642.9054445647762,-1794.7140847184587
-14803586.0,811.4515261859151,-1145.18361053732
-14797558.0,864.5169180654063,-155.56510776590108
-14796346.0,714.4310726216704,1154.323876645712
-14793244.0,459.07740141612294,2976.8639712113463
-14789307.0,232.66014872737014,4959.595331499233
-14788106.0,42.90254194156819,7283.49937818424
-14783873.0,11.714860537522554,10010.247717736353
-14797324.0,11.597711932147377,12709.728573892944
-14784848.0,11.481734812826062,15482.29795482006
-14786631.0,11.366917464697963,18297.391641937906
-14787166.0,11.253248290051033,20846.917725518528
-14787357.0,11.140715807150627,23016.61521493125
-14787034.0,84.81361320328801,24787.44906278194
-14788285.0,164.71759787869746,26218.657905486212
-14789998.0,271.67428350597834,27308.88799309926
-14790251.0,417.43011026680415,27808.549113168265
-14789357.0,1819.9881034785026,28112.88028870263
-14791641.0,5601.443455427672,28102.251485815603
-14790796.0,735.8257472031369,27742.5623042914
-14787076.0,830.4388946030786,27386.47001458058
-14787960.0,578.4030087783949,27008.355314434775
-14791471.0,434.1351972288844,26391.188427958336
-14792448.0,526.0009687863067,25780.193210344798
-14784389.0,543.2629257410613,25456.224611575304
-14776649.0,1185.4878062645248,25124.49569879164
-14767126.0,1942.4357343061902,25104.667408471632
-14762496.0,1686.1252723898215,25745.95406771901
-14756628.0,1443.53245687269,27124.82786037577
-14751281.0,420.06527552044963,29091.99624843806
-14749737.0,1229.2117415555922,31581.90961928763
-14749508.0,2056.4173170701742,31581.90961928763
-14756313.0,1448.3389465536998,31581.90961928763
-14756422.0,1465.6248277265627,31581.90961928763
-14755655.0,1867.099641378844,31581.90961928763
-14756722.0,2257.4598584578303,31581.90961928763
-14757542.0,1979.0209814427317,31581.90961928763
-14756637.0,1416.6906059995376,31581.90961928763
-14759949.0,709.7781085198949,31581.90961928763
-14763693.0,257.07901139207206,31581.90961928763
-14771190.0,254.50822127815127,31581.90961928763
-14777759.0,251.9631390653699,31581.90961928763
-14789438.0,249.44350767471633,31581.90961928763
-14802468.0,246.949072597969,31581.90961928763
-14811151.0,244.47958187198947,31581.90961928763
-14818882.0,653.0941948076966,31581.90961928763
-14826525.0,1535.2524491477639,31581.90961928763
-14827231.0,990.2613109133836,31581.90961928763
-14828011.0,791.7471017066764,31581.90961928763
-14830959.0,438.1981817152323,31581.90961928763
-14832066.0,104.88732732967719,31581.90961928763
-14835062.0,159.5418977727761,31581.90961928763
-14837568.0,403.90029883489547,31581.90961928763
-14841057.0,416.19014749999747,31581.90961928763
-14840943.0,182.0233238874432,31581.90961928763
-14842831.0,120.60570761740018,31581.90961928763
-14844109.0,314.9524853331636,31581.90961928763
-14846142.0,377.65164605708696,31581.90961928763
-14852922.0,440.1192362494746,31581.90961928763
-14858221.0,622.1703359781345,31581.90961928763
-14862761.0,645.9662311266118,31581.90961928763
-14870422.0,780.2594613439067,31581.90961928763
-14881043.0,812.0606805353912,31581.90961928763
-14890730.0,646.6695578695344,31581.90961928763
-14901400.0,457.94218334629386,31581.90961928763
-14911335.0,461.5799675218748,31581.90961928763
-14922616.0,556.6669470256904,31581.90961928763
-14934298.0,581.4395225791675,31581.90961928763
-14946593.0,685.4579242118989,31581.90961928763
-14960314.0,681.2381407518008,31581.90961928763
-14975962.0,654.8517773264534,31581.90961928763
-14990068.0,710.860284943695,31581.90961928763
-15003780.0,694.4237724213651,31581.90961928763
-15016449.0,689.903038465389,31581.90961928763
-15028238.0,655.8505617821459,31581.90961928763
-15039796.0,411.91390272187505,31581.90961928763
-15050829.0,257.4402083344396,31581.90961928763
-15065207.0,27.249802231496005,31581.90961928763
-15073509.0,34.93903486365684,31581.90961928763
-15087876.0,19.755018753142167,31581.90961928763
-15098129.0,17.199797353302984,31581.90961928763
-15102162.0,28.66959343253825,31581.90961928763
-15107794.0,0.7825082855295022,31581.90961928763
-15106706.0,284.04044724515074,31581.90961928763
-15107268.0,246.46514802864067,31581.90961928763
-15105513.0,342.97540748703,31581.90961928763
-15107374.0,478.0385802023468,31581.90961928763
-15109351.0,1358.9099609741704,31581.90961928763
-15113614.0,1358.9099609741704,31581.90961928763
-15113670.0,1358.9099609741704,31581.90961928763
-15117693.0,1358.9099609741704,31581.90961928763
-15119522.0,1358.9099609741704,31581.90961928763
-15120555.0,1358.9099609741704,31581.90961928763
-15126309.0,237.06354586796056,31581.90961928763
-15135039.0,158.3938267078181,31581.90961928763
-15147318.0,101.3222559295557,31581.90961928763
-15166721.0,66.80939776692685,31581.90961928763
-15192010.0,229.9983497677249,31581.90961928763
-15229174.0,294.78912626570764,31581.90961928763
-15268766.0,294.2987393595081,31581.90961928763
-15302595.0,302.2505431759796,31581.90961928763
-15338974.0,343.63244604363445,31581.90961928763
-15376565.0,99.27506187744825,31581.90961928763
-15378374.0,174.86533063558022,31581.90961928763
-15372815.0,147.1866107479466,31581.90961928763
-15395155.0,95.7668408710947,31581.90961928763
-15421703.0,55.55016020405287,31581.90961928763
-15438733.0,20.77150246033807,31581.90961928763
-15447958.0,84.90788482467883,31581.90961928763
-15459872.0,53.30272704831873,31581.90961928763
-15468673.0,52.76969977783551,31581.90961928763
-15478037.0,94.0559902654229,31581.90961928763
-15487416.0,280.7198252693322,31581.90961928763
-15493820.0,399.1910501763334,31581.90961928763
-15496463.0,194.91844938290365,31581.90961928763
-15493558.0,372.4006332109252,31581.90961928763
-15489461.0,86.12058371550074,31581.90961928763
-15486873.0,137.56085555791196,31581.90961928763
-15487085.0,220.40096566019497,31581.90961928763
-15486246.0,307.5055384982911,31581.90961928763
-15487266.0,466.81709944807653,31581.90961928763
-15488898.0,537.6294391487127,31581.90961928763
-15490142.0,602.1268861782419,31581.90961928763
-15490792.0,751.018974956035,31581.90961928763
-15492256.0,823.6505472966896,31581.90961928763
-15492156.0,948.114202562761,31581.90961928763
-15492645.0,182.10200073676515,31581.90961928763
-15493402.0,13.622531356979607,31581.90961928763
-15494535.0,44.17241443322064,31581.90961928763
-15495468.0,63.615755740336,31581.90961928763
-15495941.0,13.837810609583812,31581.90961928763
-15496463.0,77.0699959677047,31581.90961928763
-15489828.0,50.33657170169022,31581.90961928763
-15476704.0,46.414788170596694,31581.90961928763
-15471315.0,87.54378550840624,31581.90961928763
-15465320.0,226.3810592714981,31581.90961928763
-15455514.0,235.43167760876713,31581.90961928763
-15445117.0,233.07736083267946,31581.90961928763
-15437258.0,230.74658722435265,31581.90961928763
-15441117.0,228.43912135210917,31581.90961928763
-15417257.0,226.1547301385881,31581.90961928763
-15420146.0,223.89318283720218,31581.90961928763
-15466944.0,462.8775286571622,31581.90961928763
-15496713.0,744.8508072398508,31581.90961928763
-15447259.0,1571.2836983713,31581.90961928763
-15377199.0,1925.9641750988144,31581.90961928763
-15315692.0,696.8465861980758,31581.90961928763
-15239431.0,183.84012670016818,31581.90961928763
-15158199.0,113.66640606154488,31581.90961928763
-15087072.0,339.1337356998147,31581.90961928763
-15048530.0,1065.1184266510104,31581.90961928763
-15042483.0,709.092788097623,31581.90961928763
-15055375.0,818.0051034397263,31581.90961928763
-15066082.0,671.4393026257242,31581.90961928763
-15066359.0,74.66206591960758,31581.90961928763
-15068567.0,719.6198602242132,31581.90961928763
-15069627.0,700.0874730947346,31581.90961928763
-15076054.0,279.81699969265037,31581.90961928763
-15082071.0,292.41707702142344,31581.90961928763
-15088839.0,333.8474878694576,31581.90961928763
-15097773.0,159.80316077541147,31581.90961928763
-15088923.0,127.20796480862032,31581.90961928763
-15087674.0,246.87710151662395,31581.90961928763
-15085816.0,229.37740384021618,31581.90961928763
-15079740.0,71.18830826237718,31581.90961928763
-15064379.0,137.516359164689,31581.90961928763
-15051554.0,117.47251790928817,31581.90961928763
-15043072.0,135.81228052537244,31581.90961928763
-15042356.0,87.35757628567194,31581.90961928763
-15043642.0,119.24881895194198,31581.90961928763
-15049752.0,153.61897304848503,31581.90961928763
-15053295.0,167.55957972237547,31581.90961928763
-15048414.0,11.35078381438234,31581.90961928763
-15040580.0,103.18542794734526,31581.90961928763
-15040357.0,72.59615292937156,31581.90961928763
-15047175.0,81.8209659687036,31581.90961928763
-15033390.0,83.22520602826876,31581.90961928763
-15032331.0,70.81097067304063,31581.90961928763
-15033110.0,132.0629859325611,31581.90961928763
-15050742.0,331.69342571968195,31581.90961928763
-15061057.0,178.20073290563164,31581.90961928763
-15086619.0,239.39705771941635,31581.90961928763
-15116050.0,188.5330514079967,31581.90961928763
-15145445.0,36.01007415537015,31581.90961928763
-15174577.0,954.0945138238899,31581.90961928763
-15199258.0,954.0945138238899,31581.90961928763
-15216110.0,954.0945138238899,31581.90961928763
-15219104.0,954.0945138238899,31581.90961928763
-15215586.0,954.0945138238899,31581.90961928763
-15212386.0,954.0945138238899,31581.90961928763
-15220696.0,199.94357851463633,31581.90961928763
-15225711.0,197.28201792809227,31581.90961928763
-15224883.0,363.15279771731775,31581.90961928763
-15217651.0,287.53936455856956,31581.90961928763
-15221483.0,266.21879795610107,31581.90961928763
-15232066.0,411.19215423354194,31581.90961928763
-15251048.0,423.5220582563975,31581.90961928763
-15276504.0,365.2510064357698,31581.90961928763
-15305250.0,263.702358671997,31581.90961928763
-15330376.0,125.44933573329195,31581.90961928763
-15348402.0,6.5735766685857016,31581.90961928763
-15365391.0,243.43930228812906,31581.90961928763
-15376536.0,184.13583544199082,31581.90961928763
-15374000.0,301.0293422570014,31581.90961928763
-15394622.0,87.2067386867659,31581.90961928763
-15386017.0,1.5069278644639326,31581.90961928763
-15365367.0,66.58582885035935,31581.90961928763
-15349617.0,139.32448643675752,31581.90961928763
-15330502.0,31.272695774383237,31581.90961928763
-15321927.0,290.31284686832646,31581.90961928763
-15326745.0,87.08016377202193,31581.90961928763
-15341367.0,60.40250880949861,31581.90961928763
-15354313.0,615.4208496042959,31581.90961928763
-15373543.0,479.7062613816497,31581.90961928763
-15399473.0,518.204479249818,31581.90961928763
-15422472.0,401.6256964328061,31581.90961928763
-15441834.0,263.5585543593984,31581.90961928763
-15457613.0,260.9229688158043,31581.90961928763
-15470522.0,258.3137391276464,31581.90961928763
-15487698.0,255.73060173636986,31581.90961928763
-15562645.0,253.1732957190061,31581.90961928763
-15631549.0,250.64156276181598,31581.90961928763
-15466427.0,401.72757311560963,31581.90961928763
-15447292.0,244.91245829232412,31581.90961928763
-15442228.0,69.42231434607766,31581.90961928763
-15438677.0,195.30625557364124,31581.90961928763
-15433729.0,18.657182732275032,31581.90961928763
-15413239.0,106.4567136932003,31581.90961928763
-15355149.0,216.43960818000073,31581.90961928763
-15326090.0,292.3009289688198,31581.90961928763
-15301659.0,342.72330097401095,31581.90961928763
-15268999.0,308.7602273720029,31581.90961928763
-15252006.0,215.629504494583,31581.90961928763
-15238990.0,135.7095391695966,31581.90961928763
-15235730.0,230.00303388284374,31581.90961928763
-15249247.0,171.49389944203904,31581.90961928763
-15259528.0,76.92068361388806,31581.90961928763
-15277003.0,51.065171542742746,31581.90961928763
-15293682.0,204.33376734927765,31581.90961928763
-15302560.0,202.29042967578494,31581.90961928763
-15304735.0,78.2180307820056,31581.90961928763
-15307260.0,192.7312044015605,31581.90961928763
-15311709.0,357.24897685161,31581.90961928763
-15315058.0,150.56306164736202,31581.90961928763
-15322737.0,25.9574061099313,31581.90961928763
-15328374.0,385.8620107221591,31581.90961928763
-15331330.0,460.1383155122494,31581.90961928763
-15333955.0,147.9999064904332,31581.90961928763
-15338022.0,146.54062307019012,31581.90961928763
-15339922.0,409.8228337851142,31581.90961928763
-15339741.0,409.8228337851142,31581.90961928763
-15342239.0,409.8228337851142,31581.90961928763
-15342119.0,409.8228337851142,31581.90961928763
-15340916.0,409.8228337851142,31581.90961928763
-15341620.0,409.8228337851142,31581.90961928763
-15341864.0,144.9363239943077,31581.90961928763
-15346408.0,23.09593858856806,31581.90961928763
-15352080.0,138.50232853742796,31581.90961928763
-15357785.0,181.85920939760877,31581.90961928763
-15362836.0,195.04896876747307,31581.90961928763
-15366810.0,231.99659300669805,31581.90961928763
-15369319.0,250.0675424338881,31581.90961928763
-15373037.0,313.0778114024574,31581.90961928763
-15374426.0,273.067489695542,31581.90961928763
-15366405.0,110.80081052125229,31581.90961928763
-15354792.0,83.44567594608111,31581.90961928763
-15325463.0,185.28032410028482,31581.90961928763
-15251791.0,40.16143497115877,31581.90961928763
-15143990.0,124.70374973959542,31581.90961928763
-14976393.0,169.7306517128959,31581.90961928763
-14606631.0,104.03377089225,31581.90961928763
-14194735.0,62.55044759941575,31581.90961928763
-14127546.0,107.98704760676537,31581.90961928763
-14149288.0,70.8117388841988,31581.90961928763
-14180741.0,83.79733529356486,31581.90961928763
-14313400.0,153.1206636468296,31581.90961928763
-14493335.0,88.28092952411203,31581.90961928763
-14624083.0,29.976233331546837,31581.90961928763
-14740777.0,195.39767653077092,31581.90961928763
-14809234.0,149.5599945755157,31581.90961928763
-14829003.0,60.03368574192132,31581.90961928763
-14849421.0,9.937554652702374,31581.90961928763
-14830462.0,190.71000216082507,31581.90961928763
-14744176.0,279.12504276086406,31581.90961928763
-14551264.0,254.63792445231638,31581.90961928763
-14270073.0,69.7738894789261,31581.90961928763
-13992536.0,37.62055557913686,31581.90961928763
-13872059.0,519.7295158344298,31581.90961928763
-13826074.0,656.1532611090736,31581.90961928763
-13878952.0,630.9334043873487,31581.90961928763
-14043596.0,304.80927906997135,31581.90961928763
-14272008.0,86.95293123490364,31581.90961928763
-14465716.0,55.061860343164426,31581.90961928763
-14617377.0,71.6272526990681,31581.90961928763
-14753149.0,322.3533553285524,31581.90961928763
-14862469.0,762.8841297740751,31581.90961928763
-14946770.0,1066.3347844837936,31581.90961928763
-15012968.0,127.11788559570505,31581.90961928763
-15071171.0,125.84670673974802,31581.90961928763
-15128611.0,124.58823967235048,31581.90961928763
-15175576.0,123.34235727562691,31581.90961928763
-15214915.0,122.10893370287067,31581.90961928763
-15249950.0,120.88784436584206,31581.90961928763
-15280717.0,1061.9692327365906,31581.90961928763
-15313100.0,869.4023865669446,31581.90961928763
-15337437.0,691.4485370002758,31581.90961928763
-15351794.0,519.4222413072903,31581.90961928763
-15360248.0,310.74942918943634,31581.90961928763
-15375705.0,65.40257288043813,31581.90961928763
-15399227.0,47.719815504704,31581.90961928763
-15430183.0,41.75320646069508,31581.90961928763
-15452112.0,150.94752919184953,31581.90961928763
-15465445.0,34.98429862767398,31581.90961928763
-15474647.0,175.52714167765203,31581.90961928763
-15481600.0,118.78276511892159,31581.90961928763
-15487675.0,60.605074232936886,31581.90961928763
-15491159.0,160.15799857076422,31581.90961928763
-15490290.0,114.30724535418494,31581.90961928763
-15487385.0,93.9332426109479,31581.90961928763
-15483459.0,41.350182933461156,31581.90961928763
-15475143.0,82.13904721893596,31581.90961928763
-15466201.0,40.60493695182004,31581.90961928763
-15456216.0,64.38403935653105,31581.90961928763
-15445106.0,157.98694888300724,31581.90961928763
-15433282.0,292.8658226575003,31581.90961928763
-15422313.0,303.33442553893565,31581.90961928763
-15413505.0,162.95446707888414,31581.90961928763
-15410494.0,0.664565670859929,31581.90961928763
-15406572.0,35.454060902924084,31581.90961928763
-15402938.0,41.30338286690858,31581.90961928763
-15398692.0,29.204170726895427,31581.90961928763
-15395600.0,44.617034547259436,31581.90961928763
-15393519.0,44.5821704074915,31581.90961928763
-15391516.0,25.783483703069805,31581.90961928763
-15389757.0,4.7080460085442155,31581.90961928763
-15386836.0,168.6263305902064,31581.90961928763
-15386243.0,219.33809511184268,31581.90961928763
-15385187.0,275.17322552844894,31581.90961928763
-15384330.0,370.0414996535028,31581.90961928763
-15382520.0,488.19127678004224,31581.90961928763
-15381483.0,590.560494257764,31581.90961928763
-15380134.0,693.3868445308401,31581.90961928763
-15376569.0,767.7521930584485,31581.90961928763
-15372398.0,767.5123473250505,31581.90961928763
-15370561.0,778.4793117769334,31581.90961928763
-15367120.0,723.4940624057467,31581.90961928763
-15363584.0,113.70789777790628,31581.90961928763
-15360088.0,112.5708188001272,31581.90961928763
-15356946.0,111.44511061212597,31581.90961928763
-15354910.0,110.33065950600485,31581.90961928763
-15352870.0,109.227352910945,31581.90961928763
-15349468.0,432.8263789670425,31581.90961928763
-15345786.0,131.78758946965831,31581.90961928763
-15343530.0,36.718870535946735,31581.90961928763
-15340497.0,31.948973941627628,31581.90961928763
-15338956.0,33.23807751659956,31581.90961928763
-15336862.0,49.88449552192424,31581.90961928763
-15334159.0,138.21313184991118,31581.90961928763
-15331810.0,229.05359895414472,31581.90961928763
-15330089.0,315.27621628831844,31581.90961928763
-15327752.0,385.3658003931739,31581.90961928763
-15326347.0,404.02904691533035,31581.90961928763
-15325541.0,341.0887947724616,31581.90961928763
-15325312.0,253.8381786919947,31581.90961928763
-15323535.0,106.84698665245242,31581.90961928763
-15322949.0,322.9107449714659,31581.90961928763
-15322498.0,640.3399372924416,31581.90961928763
-15321700.0,356.31368444309396,31581.90961928763
-15322428.0,231.11848986054406,31581.90961928763
-15321946.0,136.476120324691,31581.90961928763
-15321972.0,86.71183834151543,31581.90961928763
-15320847.0,85.94652331310658,31581.90961928763
-15322482.0,159.5266428038783,31581.90961928763
-15322233.0,106.24798346972739,31581.90961928763
-15323079.0,85.88932794572361,31581.90961928763
-15322944.0,180.8667750903919,31581.90961928763
-15322867.0,215.58581320200415,31581.90961928763
-15322849.0,208.06096562140874,31581.90961928763
-15322280.0,205.98035596519458,31581.90961928763
-15322846.0,123.78808210875013,31581.90961928763
-15323051.0,1.1069250368036592,31581.90961928763
-15322816.0,94.52698712676579,31581.90961928763
-15323085.0,171.82566077851948,31581.90961928763
-15322695.0,40.05110826047758,31581.90961928763
-15322425.0,64.21986157896617,31581.90961928763
-15321885.0,31.539869096850452,31581.90961928763
-15322057.0,10.933809587572568,31581.90961928763
-15321916.0,4.082477456650395,31581.90961928763
-15321839.0,6.578889908058272,31581.90961928763
-15320341.0,29.11685625314567,31581.90961928763
-15322276.0,58.08815322732221,31581.90961928763
-15322416.0,102.65697805088462,31581.90961928763
-15323208.0,111.80927372011365,31581.90961928763
-15323423.0,126.0789597943201,31581.90961928763
-15324682.0,193.36432211916645,31581.90961928763
-15325133.0,191.43067889797476,31581.90961928763
-15325609.0,189.5163721089948,31581.90961928763
-15325963.0,187.62120838790474,31581.90961928763
-15326283.0,185.74499630402556,31581.90961928763
-15326083.0,115.3413944181957,31581.90961928763
-15325730.0,111.1423356993048,31581.90961928763
-15325915.0,88.30846257971916,31581.90961928763
-15325572.0,57.1413575276606,31581.90961928763
-15324909.0,48.31692605770786,34068.0071897608
-15323560.0,41.67554599322966,36529.2437845311
-15325287.0,14.696072005283668,38224.70134668579
-15325226.0,44.776301294446284,39356.454333218935
-15326007.0,48.93461127296791,39810.223123218835
-15326871.0,88.19378403344126,39356.4542253206
-15327492.0,175.8182750266692,38240.556349733444
-15327853.0,177.46297889204243,36171.56745290402
-15327997.0,134.1560427531565,32811.60177837498
-15327277.0,86.87120391645817,28151.90242725727
-15327275.0,21.870455691066127,22359.3834029847
-15326052.0,119.79110893200982,15469.122902288804
-15325050.0,47.71696355433505,7981.098339931961
-15323640.0,118.27529076648761,-98.71264346735825
-15322763.0,250.31346941626362,-8097.725517032684
-15321632.0,286.3125511834203,-16016.748261862358
-15318776.0,249.78140075547662,-23856.580779243734
-15318495.0,192.6553616539179,-31618.014971451295
-15316120.0,96.0168748116921,-39301.83482173678
-15314247.0,5.762019304710748,-46908.816473519415
-15312545.0,21.537180772435022,-54439.72830878422
-15310716.0,16.215194041534915,-61895.33102569638
-15307380.0,23.496403488838723,-69276.37771543942
-15305813.0,358.3802668671599,-76583.61393828502
-15303828.0,358.3802668671599,-83817.77779890217
-15304814.0,358.3802668671599,-90979.60002091315
-15301212.0,358.3802668671599,-98069.80402070402
-15299559.0,358.3802668671599,-105089.10598049697
-15297819.0,23.261439453950516,-112038.214920692
-15297195.0,46.48049705372409,-118917.83277148507
-15295099.0,41.30643750975446,-125728.65444377023
-15293567.0,9.449437597096903,-132471.36789933252
-15291342.0,34.41180999230937,-139146.6542203392
-15290152.0,8.261666024831129,-145755.18767813582
-15290253.0,84.19051115732782,-152297.63580135445
-15290576.0,134.11667989087255,-158774.6594433409
-15289072.0,169.88339374508928,-165186.9128489075
-15288232.0,165.07184565212128,-171535.0437204184
-15287194.0,100.07794112269858,-177819.69328321423
-15286425.0,42.07695981669167,-184041.49635038208
-15286161.0,3.700508163215318,-190201.08138687824
-15285799.0,86.80253517209462,-196299.07057300946
-15285106.0,170.4246287748938,-202336.07986727936
-15284944.0,222.96864433016253,-208312.71906860656
-15284313.0,142.00750396458193,-214229.5918779205
-15283210.0,110.80328418954286,-220087.29595914128
-15282928.0,77.43666621273542,-225886.42299954986
-15283013.0,21.157571706340605,-231627.55876955437
-15282592.0,15.175649296653319,-237311.28318185883
-15281102.0,5.962976562574568,-242938.17035004025
-15281087.0,20.491175488758017,-248508.78864653985
-15280965.0,48.64719810700399,-254023.70076007445
-15281291.0,65.43300855712232,-259483.4637524737
-15283449.0,57.24417834766177,-264888.62911494897
-15283686.0,24.02128843119226,-270239.7428237995
-15284178.0,115.39727441404989,-275537.3453955615
-15282466.0,199.2320858708747,-280781.97194160585
-15282019.0,258.9760634308054,-285974.15222218976
-15281548.0,244.99208065982998,-291114.4106999679
-15283505.0,159.56758711800558,-296203.2665929682
-15282877.0,183.77253030778456,-301241.2339270385
-15281949.0,227.65289747057864,-306228.8215877681
-15281632.0,234.0158481996325,-311166.53337189043
-15280904.0,244.00202532716048,-316054.8680381715
-15280006.0,232.4152332254955,-320894.31935778976
-15279207.0,200.23673944038137,-325685.37616421183
-15278306.0,146.86386740896137,-330428.5224025697
-15277474.0,64.54068801979497,-334672.487178544
-15277024.0,11.43964040179685,-338132.26230675855
-15276453.0,75.32931537886179,-340821.43968369096
-15275989.0,198.08935962149053,-342779.558620188
-15275583.0,196.10846602527567,-344003.8463673182
-15274899.0,194.14738136502297,-344510.557903645
-15274537.0,192.20590755137277,-344311.7023246085
-15273946.0,190.28384847585903,-343391.1686346964
-15273233.0,188.38100999110043,-341783.0069483494
-15273267.0,101.32982455564797,-339475.0102121999
-15272031.0,52.264110611891965,-336466.84344340995
-15271917.0,9.760781265525338,-332819.2583423098
-15271314.0,17.390592847165635,-328893.0657588867
-15271668.0,36.82811896902649,-325071.71843463177
-15270480.0,18.6370028685144,-321337.16791695147
-15270043.0,0.6716473079645766,-317647.962904448
-15271164.0,24.14573956362665,-314030.7332754035
-15270718.0,35.18448338106077,-310451.1759426495
-15270864.0,14.640991809412071,-306941.24751655693
-15268881.0,95.07649279700877,-303523.4183747253
-15269943.0,125.53241057742434,-300169.93419097806
-15269964.0,104.49111768966304,-296836.4015157343
-15269926.0,36.3660193954172,-293591.037500577
-15269435.0,37.44604886470984,-290379.54379223724
-15269618.0,72.41069933963172,-287300.33168764884
-15270012.0,65.29363504963521,-284261.4117041063
-15269600.0,103.3216987512983,-281247.9642537313
-15269858.0,90.4233424770714,-278294.15127786004
-15269378.0,25.974926449520126,-275382.3764317494
-15268770.0,21.605196039721704,-272535.386000764
-15267943.0,90.55760128102065,-269698.3654740903
-15265515.0,150.02307569430536,-266839.0484860154
-15265424.0,222.77130934107413,-263939.40800115524
-15264675.0,353.06937585832816,-260929.2639211437
-15263637.0,444.28409282052803,-257943.38794860017
-15262543.0,436.2738881008147,-254926.37073578022
-15261962.0,390.83101605577053,-251853.02369508846
-15261653.0,300.92228658942736,-248719.24345813756
-15261477.0,247.02681467610023,-245594.05102355618
-15261564.0,221.50694197809366,-242474.36051332063
-15261173.0,184.63128721072212,-239378.45024152138
-15261252.0,233.1237542231861,-236307.7490724401
-15260731.0,302.04941557959114,-233267.50491504782
-15260222.0,363.63617804125056,-230301.74653256524
-15260230.0,372.2423049716533,-227397.7290672396
-15259778.0,296.98924420387925,-224683.3351098993
-15260021.0,228.87078590362626,-222003.0017588003
-15257717.0,182.2832616327887,-219395.1384078802
-15257664.0,136.1767321925861,-216879.60369046745
-15257584.0,131.12087468201003,-214308.64098689673
-15258595.0,151.76575790074276,-211811.80457702777
-15258801.0,157.47240092169977,-209365.6865312575
-15257865.0,155.89767691248267,-206963.77966594492
-15259546.0,154.33870014335776,-204653.97520261756
-15260026.0,152.79531314192423,-202403.18545059138
-15260482.0,151.26736001050494,-200243.57026275338
-15260158.0,149.75468641039993,-198182.38456012585
-15260606.0,174.71123449275137,-196194.5607145246
-15260380.0,198.8805248817007,-194245.78177404538
-15260665.0,178.13529439832837,-192341.74062297097
-15260830.0,159.93593499719555,-190487.32321674126
-15261316.0,45.356872292345315,-188828.11665124175
-15261338.0,75.32889458763339,-187199.25215139537
-15261887.0,142.1531993631213,-185627.17629654746
-15262265.0,173.62261319064692,-184060.3212002499
-15262178.0,162.40992598596222,-182494.0513215795
-15263063.0,146.21016125543701,-180950.52747503162
-15264570.0,178.7672441562404,-179367.6055336134
-15267487.0,172.3387371235608,-177827.0128116112
-15271765.0,146.9634893736461,-176416.40935016112
-15277399.0,103.97207865713722,-175244.49525665952
-15282669.0,64.768007449283,-174432.30030409293
-15288202.0,43.55089855465121,-174087.39396771992
-15293121.0,135.75759773291952,-174180.18669470877
-15297627.0,200.56239146760595,-174719.38482776168
-15303080.0,184.41855117610316,-175622.6076461501
-15308633.0,167.9976745059423,-176890.46490302257
-15313518.0,148.41473249377736,-178554.31025399236
-15319953.0,115.72657121942552,-180640.01715145243
-15324484.0,78.63037947919815,-183104.70031327187
-15328558.0,57.32193995005082,-186014.48664347123
-15334159.0,58.08891204923475,-189147.17511037047
-15340193.0,70.26209309560795,-192344.95335926677
-15345706.0,84.33378174591235,-195621.0038256741
-15350443.0,83.49044392845326,-198897.6271207513
-15355099.0,82.65553948916886,-202161.7341828759
-15359374.0,81.8289840942773,-205326.86684104713
-15362759.0,81.01069425333458,-208438.4315059706
-15365604.0,80.20058731080121,-211499.63052424486
-15367853.0,86.69657652515525,-214357.88421900242
-15371046.0,95.53205383794239,-216961.88871014447
-15375009.0,111.98980006008856,-219320.18648971093
-15379498.0,98.01638134445511,-221384.73462481383
-15384492.0,55.1183470409419,-223381.30394523175
-15390860.0,94.38821363339275,-225392.4909057794
-15397811.0,293.9132083485697,-227332.98266338767
-15402142.0,270.8047202892544,-229281.90283675378
-15405724.0,137.1678677301643,-231331.1671417202
-15410329.0,30.969817176201104,-233326.10547030298
-15414705.0,148.27860073478223,-235211.59441559995
-15418866.0,265.58608461606696,-237105.72847144393
-15424401.0,328.13863202304833,-239063.50452006343
-15432213.0,242.35640147951995,-241111.3694748628
-15438298.0,109.34055288591003,-243412.58911344624
-15442892.0,48.45424513114017,-246075.71322231178
-15450513.0,17.409942376409617,-248889.03942342263
-15454030.0,135.02415864624413,-251682.98236252237
-15456674.0,121.16151520943981,-254667.90253889715
-15460477.0,155.3346960757376,-257385.39018017423
-15464289.0,143.0014977704477,-259716.78627837248
-15466025.0,51.568481361654676,-261980.86841558875
-15464781.0,108.91917871095302,-264241.47639809886
-15462726.0,61.613032869830704,-266095.72830078576
-15461606.0,34.47313623969808,-267566.7710177779
-15463896.0,33.51694082934455,-268643.60330760013
-15466189.0,103.02009704932289,-269248.4172745241
-15466992.0,107.14001096843572,-269196.18310177885
-15467041.0,18.042025731800777,-268828.47127076105
-15467554.0,67.12773813814465,-268148.5198913855
-15470039.0,133.0938231262021,-266844.3680258056
-15475164.0,44.30958481888456,-265302.92434554757
-15479450.0,430.6928903963178,-263763.64510209206
-15479473.0,339.90033525001513,-262349.92531773716
-15477967.0,188.29254706245638,-260866.25939789374
-15476025.0,59.96576986133232,-259397.43013724874
-15472791.0,66.16158167835283,-257943.28916920835
-15472926.0,133.9782207976682,-256374.60627751626
-15474065.0,122.83046591438483,-254658.276881409
-15471986.0,127.0098489856041,-252864.1941125949
-15472638.0,95.71318947264103,-250885.718838135
-15472288.0,16.978652790122624,-248847.36164975367
-15474164.0,17.367627879675638,-246825.30469992218
-15475312.0,17.19395160087879,-244780.71831959087
-15474807.0,17.022012084870084,-242676.66113639495
-15477929.0,16.85179196402146,-240220.144525031
-15479445.0,16.683274044381278,-237596.6930797807
-15479364.0,16.516441303937427,-235217.55948231497
-15476797.0,0.4840051610176488,-232862.21722082578
-15472816.0,26.227603024815608,-230692.26171528356
-15469472.0,76.56194812641002,-228613.00576479864
-15465861.0,117.4064879866246,-226317.70904048273
-15463766.0,109.46993668003483,-223777.94861674582
-15462793.0,48.56188023805703,-220975.41913057838
-15459668.0,30.306867406975016,-218026.33160593864
-15458447.0,46.10360990229424,-215025.6516232132
-15455395.0,12.564546104418014,-211667.39510698107
-15452263.0,47.795977484949844,-208187.3878225773
-15448598.0,62.71280682406223,-204445.76394435152
-15445707.0,55.448006544153486,-200262.47297157405
-15443912.0,93.17718019476752,-195815.5982418583
-15443800.0,174.10862872944904,-191172.27559277366
-15443020.0,288.36330080670473,-186520.13617017987
-15442376.0,335.25122411790085,-182236.93480847808
-15442712.0,50.29410783647677,-178210.23212705934
-15443585.0,49.84500883336432,-174524.7131391227
-15443164.0,90.34698640918032,-171050.63267439752
-15442872.0,84.81569402507807,-167680.04301431958
-15442771.0,87.99403419526357,-164603.57591751034
-15440962.0,32.4831272682095,-161659.6234916692
-15443032.0,51.90023624762944,-158999.44392341856
-15443233.0,116.11675951495636,-156626.8661508504
-15442207.0,145.99539290529492,-154575.0141560098
-15442115.0,52.39324691209936,-152737.5973477818
-15442963.0,31.242482838146316,-151131.13804097188
-15443308.0,131.31345949156093,-149550.07666056216
-15443415.0,214.40094599024906,-148049.82589395653
-15446494.0,220.18575537962192,-146593.32763501696
-15446942.0,187.94572332625444,-145160.31102533283
-15447038.0,112.96247120015823,-144010.54124841347
-15449633.0,11.964302202608678,-142909.60250259537
-15449198.0,53.87380070954805,-141827.67314423545
-15449968.0,64.78147521355936,-140936.563079461
-15450261.0,59.71495155258799,-140090.61411533243
-15448998.0,22.29616695420509,-139261.54130751305
-15452209.0,31.075395431780635,-138515.6758944379
-15453068.0,38.52356867089816,-137738.68580215957
-15451850.0,46.506144205400005,-137101.88227747192
-15453522.0,42.25884611358333,-136501.3634546972
-15452576.0,37.50584144095865,-135908.6831534823
-15453715.0,40.52631330010831,-135354.01298861537
-15453095.0,40.12105016710734,-134550.5561920613
-15454012.0,39.71983966543644,-133753.38396347465
-15456487.0,39.322641268782036,-132972.26679050596
-15457527.0,38.929414856094354,-132043.7107892688
-15461332.0,38.54012070753356,-131294.44034804218
-15462220.0,54.52006929425784,-130639.32927789571
-15463228.0,45.312683222010264,-130279.93598511675
-15462490.0,42.763270708422624,-129973.71995859768
-15461946.0,144.91807930630466,-129538.14942567961
-15464377.0,237.5241461155615,-129099.51793142282
-15466584.0,265.2858854734684,-128696.18941877464
-15468775.0,264.201855490518,-128351.64419125294
-15471658.0,184.7204629793016,-128192.21108267436
-15471483.0,86.72979539858261,-128181.37230518158
-15470373.0,15.65064611814364,-128287.7252487958
-15469938.0,50.34182033575121,-128368.26466297389
-15468513.0,28.098013796200576,-128241.74868301206
-15467683.0,203.27945051287475,-127993.58119618194
-15470070.0,305.83353986495104,-127430.81205088616
-15473730.0,222.08981733626024,-126799.67059704334
-15475849.0,144.33673152369397,-126185.84055774081
-15478184.0,28.87251186325375,-125860.64881882945
-15481060.0,51.51928265939523,-125653.79233064115
-15481520.0,5.462832482351587,-125547.83774066869
-15483310.0,65.04003044200999,-125498.6926965941
-15484494.0,131.8322231465197,-125305.78910296211
-15485237.0,192.76524059560234,-125130.81454526645
-15487046.0,214.6837319840813,-125056.25639981378
-15487666.0,195.94223570420354,-125044.36050248168
-15489633.0,145.02815418538967,-125219.5835641229
-15489193.0,82.04194525100411,-125444.72106181562
-15490135.0,65.91223190269807,-125794.85718453141
-15488040.0,75.45128976584101,-126130.49194601818
-15486058.0,67.4921583820801,-126157.77035989196
-15482966.0,69.3147573622025,-125912.10932295909
-15479690.0,98.98570495836088,-125309.1548963974
-15477402.0,135.3486654401636,-124214.89668076552
-15475442.0,140.77487177704643,-122820.24771395787
-15473162.0,167.65431582143174,-121099.7119034862
-15472284.0,191.8817403054993,-119134.38145111738
-15472335.0,190.7890661807046,-116936.78763660621
-15472211.0,209.2573855353312,-114541.50309357411
-15472436.0,228.1987878600637,-112118.50472930442
-15471728.0,264.8830115706928,-109588.23634867743
-15473515.0,324.69914409437683,-107087.52065185856
-15474213.0,406.710106409756,-104620.22877867207
-15474621.0,475.185944864706,-102363.6098242193
-15474811.0,124.51734791369131,-100352.89039264315
-15475343.0,123.27217443455447,-98653.94482205067
-15474283.0,122.03945269020892,-97244.98870716413
-15475037.0,120.81905816330686,-96056.62215342457
-15476903.0,119.6108675816738,-95062.30593189033
-15477955.0,118.41475890585707,-94293.43287257141
-15478412.0,533.970729041454,-93731.1652105136
-15478891.0,558.0802336283227,-93262.18689174055
-15479314.0,526.9414812279733,-92840.23168949105
-15480482.0,393.946444567531,-92458.16270592823
-15482059.0,276.8064659648478,-92106.74774553686
-15485672.0,167.3981318291328,-91766.2636014136
-15487491.0,48.54450412317806,-91502.43429873341
-15489029.0,113.33437635281075,-91508.32662241212
-15490755.0,265.26227578902444,-91665.743356188
-15493567.0,325.0765661822438,-91933.91925596008
-15496337.0,289.343161775666,-92324.41339673442
-15499644.0,197.7387187238835,-92919.83592943313
-15502922.0,123.41872934295588,-93610.1375701388
-15506346.0,118.52123381553952,-94481.45286110346
-15510202.0,129.77713563565248,-95579.13833249242
-15512818.0,135.13984566982435,-96911.26361583541
-15515564.0,125.95707061602411,-98516.15097967706
-15517987.0,158.86789085777718,-100225.65613654633
-15519984.0,228.03021952047652,-102015.48290851482
-15522291.0,217.54701092695996,-103688.24474609572
-15524462.0,174.57971721010927,-105359.11229863476
-15527143.0,143.9694108080796,-107077.35450898237
-15529829.0,181.35999576183417,-108815.4976305586
-15533861.0,311.3178819891061,-110525.34265425302
-15537109.0,438.75862698483456,-112211.08922771049
-15540600.0,504.4945942779507,-113940.39500209942
-15544515.0,142.97987991432979,-115649.90771874634
-15546780.0,141.55008111518646,-117347.90864155888
-15549301.0,140.13458030403467,-119033.84622180933
-15551310.0,138.73323450099429,-120673.67442625729
-15552835.0,137.3459021559845,-122278.35434866263
-15553816.0,135.9724431344248,-123832.48747184205
-15552988.0,564.649695113415,-125331.74593045758
-15551543.0,566.1660268348264,-126623.7618044851
-15550911.0,551.2293796180347,-127721.94085310816
-15549994.0,566.3728007901987,-128478.05477790917
-15548946.0,574.8716267858949,-128950.10756346403
-15548266.0,542.4118242186605,-129005.02315449543
-15546306.0,541.4780043755072,-128701.38958961838
-15544378.0,579.7294988307135,-128053.20902705428
-15543023.0,568.5516743425578,-126921.92693678374
-15540814.0,491.79208392726787,-125452.54100074986
-15537315.0,433.1313846744133,-123674.84892407632
-15533235.0,472.2834871936602,-121563.43376816764
-15530560.0,476.8146148295914,-119054.46609715387
-15526264.0,418.89293991271734,-116230.58810284837
-15522162.0,378.7106998524323,-113212.03222181989
-15518172.0,321.08849256791837,-109973.32856626774
-15515263.0,169.11729968242798,-106477.84528060506
-15512635.0,250.36558661534082,-102761.23349446691
-15510281.0,300.99363816162327,-98926.70449285433
-15508599.0,357.3224563486194,-94968.18744792578
-15506425.0,454.5433659117582,-91016.42224011444
-15505330.0,601.7304244394234,-87124.67468437934
-15503813.0,702.6772106872916,-83203.59460420159
-15503236.0,698.5205602505146,-79414.55865815957
-15502088.0,622.1626114302305,-75828.57973824588
-15502127.0,477.2977356355948,-72570.37727419552
-15501803.0,296.01875454118067,-69475.25683478752
-15500805.0,153.02865764582452,-66765.8375997736
-15499279.0,75.45312797140627,-64401.59589044191
-15500502.0,25.535691769246114,-62310.32993153749
-15502490.0,32.098150040438895,-60482.39329888816
-15506306.0,93.59759903227223,-58891.73603256718
-15507877.0,71.9733611850636,-57653.56867224151
-15506980.0,126.28698486520875,-56885.94965218514
-15505367.0,345.2895792086438,-56307.17348899724
-15503342.0,607.3794508098708,-55825.435087439364
-15502366.0,703.7186173123819,-55396.68073656497
-15500337.0,606.775323581639,-54851.54726253328
-15498589.0,371.1077938555054,-54322.94845657399
-15497217.0,117.49826308431193,-53633.80230534221
-15496041.0,78.92737388311775,-52829.63094895483
-15495303.0,215.21557494724175,-52002.33463946528
-15494592.0,148.6821117571635,-51085.311293070634
-15493754.0,147.1952906395918,-50115.958180139925
-15493633.0,145.72333773319588,-48956.63193167248
-15493861.0,144.26610435586394,-47429.982279021795
-15494176.0,142.82344331230524,-45918.59912289948
-15494696.0,141.3952088791823,-44422.329798336534
-15494495.0,257.5031580243792,-43045.523167019215
-15495591.0,223.06633987326563,-41877.81793534902
-15494231.0,110.28248488456688,-40803.123089329485
-15492588.0,32.70979898118799,-39908.25852510224
-15490762.0,152.83291192059937,-39146.00927318517
-15488943.0,267.2371566566867,-38368.799180453316
-15487224.0,400.70618737701034,-37545.19452198274
-15485637.0,465.35633026759115,-36639.74257676291
-15484266.0,425.52263145480174,-35659.34515099528
-15483414.0,412.7010994504599,-34617.418366151374
-15482344.0,412.76032576936086,-33471.66084915591
-15480985.0,375.2719092041275,-32266.36090733226
-15480328.0,310.749635832869,-30957.697298258936
-15478523.0,242.3080468536873,-29522.286991942394
-15478197.0,113.54711130108126,-28046.480788689016
-15477985.0,71.65228331745561,-26435.015980802127
-15478785.0,210.03126485594066,-24861.665820994105
-15479498.0,307.87402742949644,-23440.965829452074
-15480506.0,299.594717278733,-22208.4728378236
-15481033.0,212.508051539784,-21199.30477611141
-15481658.0,58.69256558734537,-20427.478395018203
-15482333.0,133.39769282517204,-19839.53694440011
-15481858.0,293.25272049784917,-19423.808241624018
-15481535.0,241.35942728745522,-19083.236825873824
-15480622.0,87.00299266223988,-18835.23779094904
-15479132.0,183.43603202770214,-18692.71874637164
-15477064.0,218.58819010122193,-18530.291558907924
-15474515.0,173.90219947000583,-18395.738643318844
-15471816.0,212.7568754074257,-18090.197923553565
-15469940.0,313.86338314105706,-17575.29594431803
-15470837.0,421.8739794295634,-16818.79298487485
-15471452.0,377.6422310305293,-15980.105055026102
-15475681.0,938.6641194968222,-15065.804004475842
-15471033.0,856.615017163354,-14081.81263109713
-15473118.0,235.66082983815295,-13090.494504786158
-15465099.0,3559.0379155819232,-12109.089559738297
-15457877.0,4296.413783044343,-11102.581997474868
-15452903.0,1578.105786711073,-9621.88951083221
-15446936.0,726.4250919349761,-9621.88951083221
-15445475.0,1095.7558874751298,-9621.88951083221
-15445883.0,729.3136032822438,-9621.88951083221
-15445962.0,347.1904952554555,-9621.88951083221
-15446630.0,127.59911481254926,-9621.88951083221
-15446948.0,126.32312366442375,-9621.88951083221
-15447218.0,125.05989242777946,-9621.88951083221
-15446749.0,123.80929350350175,-9621.88951083221
-15445813.0,122.5712005684668,-9621.88951083221
-15442605.0,121.34548856278207,-9621.88951083221
-15440942.0,745.4440048195765,-9621.88951083221
-15439690.0,895.4509670172861,-9621.88951083221
-15437655.0,628.8824843233833,-9621.88951083221
-15435610.0,458.9443998363927,-9621.88951083221
-15434194.0,164.3215113722531,-9621.88951083221
-15433498.0,52.82045003332587,-9621.88951083221
-15432377.0,182.89683312935608,-9621.88951083221
-15429911.0,118.02171584898815,-9621.88951083221
-15426811.0,18.993783642659537,-9621.88951083221
-15424330.0,14.021052453276525,-9621.88951083221
-15421530.0,29.64685873553958,-9621.88951083221
-15418949.0,137.7374401499851,-9621.88951083221
-15416068.0,158.44114208198062,-9621.88951083221
-15412600.0,178.5528750819899,-9621.88951083221
-15411258.0,128.17426553080327,-9621.88951083221
-15407918.0,66.84001728543694,-9621.88951083221
-15404406.0,31.57464881634405,-9621.88951083221
-15400034.0,57.16239920627413,-9621.88951083221
-15396625.0,12.470683422198817,-9621.88951083221
-15393607.0,81.91700581482019,-9621.88951083221
-15391338.0,274.2389291041857,-9621.88951083221
-15389450.0,498.21978235744746,-9621.88951083221
-15386684.0,505.45558416032236,-9621.88951083221
-15383618.0,238.18049634246518,-9621.88951083221
-15380939.0,20.89162398491976,-9621.88951083221
-15378821.0,83.51314110077533,-9621.88951083221
-15376104.0,22.234592000520934,-9621.88951083221
-15373315.0,283.1708830572345,-9621.88951083221
-15370464.0,483.0009702653647,-9621.88951083221
-15368171.0,341.26519442870404,-9621.88951083221
-15366554.0,168.75646131641452,-9621.88951083221
-15364950.0,170.34632434747732,-9621.88951083221
-15362087.0,185.430797873262,-9621.88951083221
-15359837.0,146.37939693958174,-9621.88951083221
-15358351.0,120.67136602898677,-9621.88951083221
-15356350.0,198.86469164190885,-9621.88951083221
-15355377.0,147.5434249646935,-9621.88951083221
-15353841.0,117.69252049636725,-9621.88951083221
-15352033.0,79.18293101332188,-9621.88951083221
-15350465.0,88.90628706273833,-9621.88951083221
-15349071.0,55.824707129527724,-9621.88951083221
-15347836.0,71.09240257899455,-9621.88951083221
-15346638.0,348.46011392418586,-9621.88951083221
-15345356.0,348.46011392418586,-9621.88951083221
-15343699.0,348.46011392418586,-9621.88951083221
-15342427.0,348.46011392418586,-9621.88951083221
-15340552.0,348.46011392418586,-9621.88951083221
-15338351.0,348.46011392418586,-9621.88951083221
-15337508.0,151.1404023278542,-9621.88951083221
-15336155.0,179.67324209017966,-9621.88951083221
-15335326.0,99.30580364039929,-9621.88951083221
-15335562.0,97.24532049396043,-9621.88951083221
-15335748.0,3.948627519041338,-9621.88951083221
-15335849.0,59.900069391998386,-9621.88951083221
-15335500.0,191.22304850800015,-9621.88951083221
-15334821.0,169.80392031272368,-9621.88951083221
-15333988.0,161.98729090342204,-9621.88951083221
-15333938.0,213.44019196410113,-9621.88951083221
-15333143.0,199.78384257934385,-9621.88951083221
-15332352.0,140.56551205668347,-9621.88951083221
-15331667.0,71.244963613854,-9621.88951083221
-15330272.0,28.82762105044776,-9621.88951083221
-15330172.0,25.557748474126356,-9621.88951083221
-15330044.0,101.76346580626932,-9621.88951083221
-15329751.0,98.26684713513919,-9621.88951083221
-15328719.0,117.69446104533722,-9621.88951083221
-15328777.0,125.22102491900705,-9621.88951083221
-15328294.0,137.21457898906078,-9621.88951083221
-15328111.0,119.0470009355895,-9621.88951083221
-15328311.0,96.24776481675553,-9621.88951083221
-15328030.0,53.84119450257231,-9621.88951083221
-15327667.0,0.40753143459778585,-9621.88951083221
-15327564.0,56.6865666981289,-9621.88951083221
-15327141.0,92.71005062850554,-9621.88951083221
-15327499.0,16.372481403401707,-9621.88951083221
-15327337.0,16.208756589367567,-9621.88951083221
-15327955.0,16.046669023473896,-9621.88951083221
-15328413.0,15.886202333238998,-9621.88951083221
-15328963.0,15.727340309906594,-9621.88951083221
-15329539.0,15.57006690680737,-9621.88951083221
-15329565.0,19.03570411829969,-9621.88951083221
-15328678.0,11.158482071920389,-9621.88951083221
-15327884.0,6.39772658380798,-9621.88951083221
-15326758.0,24.023694529917975,-9621.88951083221
-15325090.0,0.3322783103776601,-9621.88951083221
-15324150.0,40.55640957979358,-9621.88951083221
-15321975.0,128.26610669471074,-9621.88951083221
-15319750.0,164.12393028162614,-9621.88951083221
-15318028.0,144.69834367514432,-7630.253949057842
-15318489.0,133.99196850806266,-5368.201409567264
-15317059.0,204.4042054084939,-2634.4360621376372
-15316052.0,202.360163354409,526.2416318158307
-15315269.0,200.33656172086512,4097.062548831626
-15314119.0,198.33319610365652,8268.508590009356
-15313365.0,196.34986414261994,13064.906837443217
-15312589.0,194.38636550119418,18445.091102402737
-15312249.0,92.0232275884241,24473.056858044754
-15311104.0,51.20196413027861,31107.40962279826
-15310442.0,48.822821101020054,38307.16885990237
-15309476.0,78.90312199008531,45607.09717130334
-15309500.0,89.6894415496954,52898.85953292427
-15308789.0,109.6946629420654,60369.87093759503
-15308741.0,71.01823049440645,67766.17222821907
-15308147.0,59.20125425956394,75088.51050593688
-15307854.0,91.09404515437836,82337.62540087751
-15307300.0,104.44889142420925,89514.24914686874
-15306951.0,93.80587348173685,96619.10665540004
-15306213.0,92.86781474691952,103652.91558884604
-15305527.0,85.51382110359236,110112.38643295757
-15304745.0,91.15481155645011,115902.09590196195
-15303451.0,66.28698316765895,121024.40827627442
-15302652.0,61.55832353170263,125493.99752684563
-15301899.0,67.09602684828815,129360.05755157718
-15300723.0,76.54410057472523,132587.37364272744
-15300646.0,107.59244969197562,135178.49990630016
-15300593.0,122.89762442611118,137175.0482405711
-15299308.0,68.39433841038408,138491.38109149935
-15298605.0,50.08933139951159,139132.30061391645
-15298339.0,57.16174852711674,139207.22760777728
-15298857.0,46.84665417442784,138652.3219983674
-15297700.0,52.31246803520753,137961.29877838373
-15297578.0,74.24246671356377,137237.85245726595
-15298500.0,73.6929678861693,136464.4739326933
-15297969.0,72.95603820730776,135664.49586003242
-15297074.0,72.22647782523472,134787.1009014321
-15295884.0,71.50421304698239,133862.06322575174
-15295151.0,70.78917091651283,132925.52592682818
-15293979.0,70.08127920734796,131999.5206675599
-15293095.0,61.46609683981296,131137.44212755037
-15291896.0,46.743940709398885,130377.2343729409
-15291715.0,41.68682181562235,129591.2120292115
-15291125.0,23.357915689451147,128875.38324225333
-15291270.0,1.3464872133022254,128160.79607649684
-15290864.0,22.50881902422816,127468.27144906583
-15290352.0,48.417937385212554,126794.75540124121
-15290369.0,58.53063934591955,126118.89118056276
-15290004.0,85.77245641116224,125468.61893542318
-15289534.0,63.80640400084394,124816.09941273685
-15289172.0,37.691854955575764,124157.10508527553
-15288763.0,46.13238072944114,123444.70070108882
-15286301.0,75.39426737953954,122708.50369407792
-15287701.0,62.7515558457294,121916.08532380505
-15287949.0,49.796186643416604,121125.75780389909
-15289004.0,53.678367820537005,120243.41689252801
-15288855.0,6.409105761601495,119354.81605693483
-15290299.0,59.68305703927126,118362.51789636548
-15289733.0,64.29592837662403,117355.64271740182
-15289572.0,47.80109500893377,116289.75295689571
-15288133.0,73.70973375561334,115193.2720939928
-15288339.0,60.81866721188271,114106.33937305286
-15288979.0,30.02431376648883,113050.69264598838
-15288892.0,17.70879862785023,111973.6857195285
-15288553.0,27.347837792710834,110905.53219566717
-15288465.0,71.99514727132373,109813.97687371049
-15288148.0,145.29175722190894,108665.50377163943
-15287684.0,126.6324195831985,107535.84873392303
-15287153.0,74.08215504044847,106443.90691325172
-15287272.0,15.827020868331601,105477.05117745129
-15286942.0,42.72151284215579,104566.61399901072
-15286500.0,26.031339938670044,103722.53119235457
-15286114.0,25.702174534982987,102904.47254709706
-15284709.0,28.985885594260708,102131.42782162609
-15284482.0,18.533503934884266,101348.86354340983
-15283649.0,22.705755052717905,100683.95824130968
-15283815.0,14.016682421905443,100016.36865889658
-15280469.0,36.76540911370512,99411.03830563971
-15279605.0,19.274156771318758,98825.59458925122
-15277638.0,21.431881991416503,98503.6719766908
-15277053.0,19.732421746256932,98230.5519235918
-15276371.0,28.87033986103188,98085.41307102193
-15276043.0,33.27815760422254,97956.14227364567
-15275519.0,32.94537602818036,97875.08085090922
-15275828.0,32.615922267898895,97804.58004240012
-15275592.0,32.2897630452203,97715.8675753082
-15275502.0,31.966865414768108,97615.54223288907
-15275718.0,31.647196760620773,97399.13681056017
-15275165.0,29.404837882437732,97165.97877578852
-15274328.0,9.447948623462253,96887.06898803063
-15274185.0,21.978149337134255,96625.19829815032
-15273804.0,43.37553901298952,96170.69631516883
-15273890.0,47.36671657420584,95660.65601868318
-15274481.0,35.555387156832694,94991.79945849635
-15273106.0,1.1384538891775264,94305.46479724534
-15273591.0,4.6041408303271965,93576.32681593893
-15273294.0,48.91047810391001,92844.89688111348
-15272279.0,109.60840800561436,92127.6145789684
-15271299.0,144.427979671711,91413.50509984476
-15270529.0,81.20131344118863,90775.45338218026
-15269199.0,17.864006867258468,90225.44884835846
-15267802.0,44.19880633323146,89737.61102654092
-15268616.0,23.300215037851558,89337.40158294342
-15267616.0,50.65083650595034,88920.02756711398
-15265709.0,26.81802662772452,88562.74395810888
-15266146.0,22.84669786226641,88224.53318519384
-15264532.0,19.282088553071844,87987.62118667585
-15264551.0,26.31542981480834,87782.32830814304
-15263886.0,27.937755267032117,87657.8383583937
-15262364.0,47.196365809285,87511.42664147766
-15262490.0,41.436875452343884,87404.64570839498
-15262936.0,0.67574448004234,87309.18258464498
-15262378.0,20.774336821484212,87170.17409213248
-15262331.0,4.227459770136647,86977.72235121115
-15262005.0,13.926944705786354,86676.36179436509
-15261201.0,37.51508091744154,86333.34817642144
-15261051.0,42.51342936362926,85953.09802799117
-15260628.0,18.083410364592055,85628.15038104335
-15259671.0,53.46528355204282,85196.45221056687
-15259587.0,45.18506798304952,84767.90435512725
-15259324.0,72.73603469085128,84326.89197824389
-15258248.0,150.463937594659,83895.70639179354
-15258642.0,131.78618326089781,83436.91599454352
-15258687.0,94.04406618667372,82956.63016793018
-15256845.0,51.011644416960735,82447.7305329188
-15257533.0,5.902390236521114,81967.41989425565
-15259074.0,7.815526791065622,81459.07902864704
-15256224.0,11.976735858661414,81044.32157169266
-15256822.0,33.59876643162397,80663.87835597574
-15257868.0,26.96127160900005,80162.9062390839
-15257874.0,11.128463958875727,79626.52717669305
-15258022.0,11.017179319286697,79060.26190492613
-15258016.0,10.907007526093821,78419.40928587687
-15258187.0,10.797937450832706,77766.13185968414
-15258435.0,10.689958076324274,77096.9705410873
-15258678.0,10.583058495560635,76367.66750234248
-15258423.0,16.964613893823753,75622.24082731905
-15257755.0,48.10673753179981,74851.43508571378
-15257419.0,26.099033278005663,74121.17073485664
-15256960.0,53.542811149810404,73361.45902750807
-15256881.0,63.54944287803255,72580.01110389903
-15256729.0,26.62204755169887,71901.96099286004
-15255985.0,20.647030546999304,71265.19138293144
-15256229.0,5.485843374131491,70647.45613576818
-15255952.0,9.878484899682917,70078.06490774445
-15255414.0,34.080149380238254,69546.53425866702
-15255355.0,71.75917298202785,69023.56891608034
-15254048.0,97.72617587484683,68564.41656025349
-15251822.0,22.93688467271886,68134.439061317
-15252010.0,43.45000411941555,67817.67800403778
-15250442.0,57.288990149317215,67673.91789066345
-15250270.0,13.9219801487302,67491.59537842286
-15249492.0,12.47398233017384,67398.09609130654
-15247533.0,88.86059818342301,67281.61513039347
-15245774.0,57.13142586769936,67224.54897908954
-15244807.0,0.6972148868126169,67318.63682263074
-15243605.0,21.3477060140317,67516.70045440443
-15240397.0,2.3424388510834433,67773.03344986039
-15240693.0,25.007767391195102,68124.2197820297
-15239642.0,49.05019159255835,68669.72758420941
-15238094.0,38.99813758001483,69229.53030836732
-15236860.0,25.455764659150645,69737.73500528364
-15235077.0,40.5757091161031,70200.02432189685
-15232700.0,40.16995202494218,70744.85741201184
-15230080.0,39.76825250469301,71317.82550455777
-15228907.0,39.37056997964646,72068.81391617823
-15228404.0,38.97686427985036,72965.79244368436
-15226858.0,38.58709563705224,73788.30118591356
-15227635.0,8.693807538179499,74497.91817405442
-15225506.0,8.71819949211067,75183.93899231387
-15225887.0,70.42913596895414,75827.68293572468
-15225499.0,77.60983775365094,76303.23943969952
-15223525.0,21.330241539547387,76781.12371197043
-15224050.0,11.775704784324716,77191.89580818282
-15224121.0,38.72869615384707,77584.39351676889
-15222403.0,49.91453581352289,77876.0495816012
-15221526.0,58.096480566392074,78059.95575245123
-15220791.0,58.78143462167873,78137.43952826067
-15220457.0,49.841707680176114,78068.89846631016
-15219176.0,39.10327468604464,77964.542814981
-15220285.0,14.756188539606228,77847.14738683119
-15218151.0,14.850454555569286,77681.17591296288
-15218873.0,12.988105719330633,77544.53082049929
-15218097.0,2.159304375316424,77353.5855122943
-15216751.0,26.424952564329942,77192.96632383927
-15215937.0,36.745101619029356,77037.86999393297
-15215496.0,28.416892528165135,76881.65796066154
-15214903.0,22.241781169306705,76788.92471438702
-15214837.0,12.396561230410953,76690.1188005771
-15215995.0,11.35307038027122,76498.80094590528
-15215387.0,45.76060168745835,76245.39626977833
-15215420.0,34.5356998444513,75933.2756404145
-15216291.0,25.214871480565307,75593.69288401036
-15216107.0,18.154609551578233,75195.25595517026
-15214904.0,8.8482646200423,74756.30339561855
-15216448.0,12.74802980045979,74239.24036166236
-15216217.0,20.33688862288318,73658.01462471178
-15216329.0,20.21318384774804,73078.10114513258
-15215864.0,7.569835351740949,72391.82013368125
-15216200.0,1.6675066932580194,71644.56859901048
-15216468.0,20.168542778713345,70868.03957968642
-15216248.0,22.082458146533554,70096.6925172235
-15215525.0,34.97789904106503,69327.97559205127
-15215600.0,18.702869099740383,68566.94583613076
-15215177.0,13.852288287239844,67866.27637776945
-15215123.0,2.208156263042838,67226.7802806578
-15214211.0,12.33343323335157,66574.76247785121
-15214742.0,15.16459803245516,65991.0148530727
-15213799.0,9.786327169953438,65454.021371209885
-15214009.0,4.959901502097182,64966.64782416383
-15213955.0,21.384943480401034,64500.98134592219
-15213548.0,21.171094045596874,64044.47153246297
-15213488.0,20.959383105141114,63605.52681713834
-15213751.0,20.749789274089835,63177.554882300916
-15213095.0,20.54229138134906,62766.779333477905
-15213083.0,20.336868467535623,62365.11154014312
-15212965.0,0.6637767154825269,61950.210424741694
-15211731.0,6.670594093012369,61534.208320494276
-15211541.0,5.856661844015434,61103.19957062142
-15211461.0,17.484901173066646,60774.834241583114
-15211434.0,16.76571284522379,60433.83589916728
-15211117.0,18.217235781237378,60058.664206841655
-15211528.0,2.8608808410122037,59670.41089810719
-15211019.0,9.172582952225639,59283.79012245821
-15210898.0,11.091685042454174,58914.45222123362
-15210907.0,0.8302990915531154,58552.974365689195
-15210183.0,10.224211193521114,58187.52795536439
-15210012.0,12.941967878844935,57821.486009144704
-15207919.0,11.225026948734012,57485.937815719306
-15208634.0,9.232361888706237,57166.99510423002
-15208107.0,3.077325220639068,56956.24181985377
-15207336.0,6.178498837268307,56688.67940165523
-15206385.0,5.77083335815405,56423.62594097263
-15205329.0,5.8034410500577,56203.139681562905
-15204802.0,16.480626756475885,56064.10828474728
-15204429.0,3.2320803039719976,56012.2172018998
-15203553.0,8.546464702122194,55978.3450298808
-15203498.0,4.983455326690546,55967.728246248036
-15202905.0,14.615699196077912,56020.88429711951
-15203305.0,5.5492315628985125,56077.34212081436
-15202761.0,2.2068480198786347,56089.73536627227
-15202788.0,7.4033376312991095,56121.08801260954
-15202428.0,20.620049577743885,56047.04379915135
-15202608.0,14.608501762279957,55932.07336115984
-15202129.0,2.4948064687937404,55815.33596088034
-15202993.0,3.9568040752319575,55651.18260127153
-15203062.0,5.417313789843774,55409.42077525882
-15202812.0,15.824996804385592,55065.07656750623
-15202791.0,6.772774606586154,54680.25913516512
-15202157.0,1.3800246378059455,54268.20654381347
-15201972.0,3.952056211119725,53789.02447837533
-15202227.0,9.818404324150379,53357.05090025762
-15202287.0,11.680140594252407,52913.313724589
-15201551.0,20.85738373274671,52446.51392067707
-15201531.0,0.5623163632062642,51990.0487814703
-15201459.0,8.706802045490804,51570.98162698769
-15200964.0,8.790732111852321,51145.021810717815
-15200772.0,7.6770960882331565,50729.321592610635
-15200643.0,15.4481471054537,50359.02837668453
-15199774.0,15.293665634399531,50025.438092917684
-15199833.0,15.140728978055904,49705.93371198851
-15199671.0,14.989321688275595,49457.124374868625
-15199168.0,14.839428471393148,49213.969797787846
