Timestamp,PPG_Raw,Acc_Norm,Motion_State,AC_Y,Upper_Th,Lower_Th
00:00:00.00,0.0,0.0,0,0.0,4921.875,-4921.875
00:00:00.01,75.32680552793272,0.0,0,37.66340276396636,4845.559193793187,-4844.382212456813
00:00:00.02,150.22558912075706,0.0,0,73.30096141136494,4770.992658912221,-4767.543412865123
00:00:00.03,224.2707609493812,0.0,0,106.90757069075119,4698.11632940876,-4691.380116247063
00:00:00.04,297.04158157703495,0.0,0,109.11615220046149,4626.413201639881,-4616.37236205257
00:00:00.05,368.124552684678,0.0,0,121.03717992470769,4556.016701300581,-4542.350337959175
00:00:00.06,437.11576665093287,0.0,0,137.7931776854723,4486.981958744095,-4469.223095527227
00:00:00.07,503.6232016357608,0.0,0,156.89478275740407,4419.3243466193035,-4396.940003679029
00:00:00.08,567.2689491267565,0.0,0,203.68951445090048,4353.455052366672,-4325.055167458249
00:00:00.09,627.6913612907005,0.0,0,247.04208824183394,4289.292349802222,-4253.616147837935
00:00:00.10,684.5471059286888,0.0,0,286.8204038304922,4226.753725646414,-4182.671826718116
00:00:00.11,737.513117358174,0.0,0,322.90695868163243,4165.756119912589,-4112.272158196245
00:00:00.12,786.2884321366189,0.0,0,373.55180034854226,4106.502927419401,-4042.1811588439828
00:00:00.13,830.5958991958125,0.0,0,419.0295048822142,4048.886155192258,-3972.474742223261
00:00:00.14,870.1837546695257,0.0,0,459.23388595805153,3992.797838485473,-3903.229294907928
00:00:00.15,904.8270524660196,0.0,0,494.0811099740407,3938.130389602482,-3834.521319831647
00:00:00.16,934.328942456612,0.0,0,523.5105529776629,3884.776954655219,-3766.4270718190014
00:00:00.17,958.5217890173758,0.0,0,547.485506682562,3832.6317757806464,-3699.0221877799145
00:00:00.18,977.2681235681936,0.0,0,565.9937305146658,3781.5905563233655,-3632.3813140565617
00:00:00.19,990.4614256966512,0.0,0,579.0478474547668,3731.5508264972937,-3566.577733407947
00:00:00.20,998.0267284282716,0.0,0,586.6855822869667,3682.4123070565074,-3501.6829941002143
00:00:00.21,999.921044203816,0.0,0,588.9698417149281,3634.077268535545,-3437.7665435406025
00:00:00.22,996.1336091431724,0.0,0,585.7519967550007,3586.447186163974,-3374.8990663484838
00:00:00.23,986.685944207868,0.0,0,577.1566106606707,3539.4270209217348,-3313.1481963952156
00:00:00.24,971.631732914674,0.0,0,564.042511936843,3492.936637968846,-3252.567091577527
00:00:00.25,951.0565162951536,0.0,0,546.0727478077318,3446.8918896850782,-3193.2133440871326
00:00:00.26,925.077206834458,0.0,0,523.431959224603,3401.2128282716335,-3135.140761222887
00:00:00.27,893.8414241512639,0.0,0,496.327202173095,3355.8239903638437,-3078.3990742948245
00:00:00.28,857.5266561936522,0.0,0,464.9869774727232,3310.6546620374197,-3023.0336672359567
00:00:00.28,816.3392507171841,0.0,0,429.66012840591355,3265.6391224494273,-2969.0853266790523
00:00:00.30,770.5132427757893,0.0,0,390.8512528669279,3220.7205619872007,-2916.586317623646
00:00:00.31,720.3090248879071,0.0,0,348.83439542033295,3175.8473406345934,-2865.564118982334
00:00:00.32,666.0118674342517,0.0,0,303.1901298533934,3130.962071716137,-2816.052333844276
00:00:00.33,607.9302976946053,0.0,0,254.73350844572866,3086.0210004150367,-2768.0713050584945
00:00:00.34,546.3943467342692,0.0,0,203.79434983838945,3040.9862089997764,-2721.6359042007307
00:00:00.35,481.7536741017152,0.0,0,150.71385502140149,2995.8257034688645,-2676.755439212885
00:00:00.36,414.3755809932843,0.0,0,95.8428047578079,2950.5134706765043,-2633.433591650843
00:00:00.37,344.6429231745171,0.0,0,39.539695763724,2905.0295054434923,-2591.6683840349906
00:00:00.38,272.95193551732547,0.0,0,-17.83117342450818,2859.35980733618,-2551.452177619202
00:00:00.39,199.70998051440705,0.0,0,-75.90165569611614,2813.4963469763,-2512.7717007141537
00:00:00.40,125.3332335643041,0.0,0,-134.30173631861828,2767.437001924817,-2475.6081075204734
00:00:00.41,50.244318179769664,0.0,0,-192.66153004937485,2721.1854623627205,-2439.9370672474874
00:00:00.42,-25.13009544333713,0.0,0,-250.61328278064954,2674.7511069698553,-2405.728883115193
00:00:00.43,-100.36171485121471,0.0,0,-307.7933660809715,2628.148849578436,-2372.9486406615333
00:00:00.44,-175.0230589752761,0.0,0,-363.8442530491237,2581.39895734988,-2341.5563846050895
00:00:00.45,-248.68988716485455,0.0,0,-418.41646401578373,2534.5268413910417,-2311.5073233458816
00:00:00.46,-320.9436098072095,0.0,0,-471.1704708110646,2487.562820887884,-2282.752060025025
00:00:00.47,-391.3736668372026,0.0,0,-521.7785485629328,2440.541861990215,-2255.2368489084297
00:00:00.48,-459.5798606214877,0.0,0,-569.926564300353,2393.5032928294245,-2228.9038757114286
00:00:00.49,-525.1746299612954,0.0,0,-615.3156920042866,2346.4904961913976,-2203.6915603410043
00:00:00.50,-587.785252292473,0.0,0,-657.6640441772962,2299.5505814981366,-2179.5348804009463
00:00:00.51,-647.0559615694443,0.0,0,-696.7082104860644,2252.7340378733834,-2156.3657136835263
00:00:00.52,-702.649969798849,0.0,0,-732.2046945679032,2206.0943701789884,-2134.1131977598448
00:00:00.53,-754.2513807361038,0.0,0,-763.9312406792867,2159.6877200093277,-2112.704104680461
00:00:00.54,-801.5669848708764,0.0,0,-791.6880424982689,2113.5724737201463,-2092.0632287088642
00:00:00.55,-844.3279255020153,0.0,0,-815.2988270697616,2067.808859645304,-2072.113784933253
00:00:00.56,-882.2912264349534,0.0,0,-834.6118075992318,2022.4585367196082,-2052.777816537409
00:00:00.57,-915.2411726209176,0.0,0,-849.5004995523717,1977.5841767778586,-2033.9766084595176
00:00:00.57,-942.9905358928644,0.0,0,-859.8643953014363,1933.2490428391195,-2015.6311051289226
00:00:00.59,-965.3816388332738,0.0,0,-865.6294933688172,1889.5165657108705,-1997.662329945171
00:00:00.60,-982.2872507286888,0.0,0,-866.7486791504252,1846.4499212599128,-1979.9918041515032
00:00:00.61,-993.6113105200084,0.0,0,-863.2019548508825,1804.1116106956815,-1962.541962756181
00:00:00.62,-999.2894726405892,0.0,0,-854.9965172245684,1762.5630461969276,-1945.2365651697496
00:00:00.63,-999.2894726405892,0.0,0,-842.166682586328,1721.8641441846892,-1928.0010982543836
00:00:00.64,-993.6113105200084,0.0,0,-824.063889163153,1682.0840186636292,-1910.752079362333
00:00:00.65,-982.2872507286888,0.0,0,-801.5211178322445,1643.2776884058812,-1893.4203455884253
00:00:00.66,-965.3816388332738,0.0,0,-775.3600724512642,1605.4864733924883,-1875.9506538206572
00:00:00.67,-942.9905358928644,0.0,0,-744.9728285921723,1568.7605467989779,-1858.279125301462
00:00:00.68,-915.2411726209176,0.0,0,-710.5230750301148,1533.1467402078983,-1840.3454370159723
00:00:00.69,-882.291226434953,0.0,0,-672.198033411058,1498.6882281201022,-1822.0931338346454
00:00:00.70,-844.327925502015,0.0,0,-630.2073719770336,1465.4242343685844,-1803.4699188056202
00:00:00.71,-801.5669848708766,0.0,0,-584.78199286755,1433.3897620680198,-1784.427919962838
00:00:00.72,-754.251380736104,0.0,0,-536.8824700969234,1402.6042584404424,-1764.935022308683
00:00:00.73,-702.6499697988496,0.0,0,-486.0328058859357,1373.0943043103427,-1744.9521751770776
00:00:00.74,-647.0559615694443,0.0,0,-431.8111743686508,1344.8926562059835,-1724.434347039446
00:00:00.75,-587.7852522924734,0.0,0,-375.2659555339884,1318.0151778975464,-1703.3535909221732
00:00:00.76,-525.1746299612961,0.0,0,-316.71194809931035,1292.4725665538456,-1681.687315253066
00:00:00.77,-459.5798606214877,0.0,0,-256.4756902442959,1268.2702500413745,-1659.4183836123038
00:00:00.78,-391.3736668372025,0.0,0,-194.8935878996284,1245.4083150735464,-1636.5351836792934
00:00:00.79,-320.94360980720984,0.0,0,-132.30998777796373,1223.8814665914915,-1613.0316649933352
00:00:00.80,-248.6898871648545,0.0,0,-69.0752060559639,1203.679018581375,-1588.9073453224387
00:00:00.81,-175.023058975276,0.0,0,-5.54352387020738,1184.784916355569,-1564.1672856122475
00:00:00.82,-100.36171485121508,0.0,0,57.928839019709145,1167.1777901471962,-1538.8220336648733
00:00:00.83,-25.130095443337048,0.0,0,120.9857609216704,1150.8310396905474,-1512.8875368744586
00:00:00.84,50.24431817976885,0.0,0,183.27325371536548,1135.7129492846852,-1486.3850245214926
00:00:00.85,125.33323356430418,0.0,0,244.44148563573918,1121.7868326651706,-1459.3408603002858
00:00:00.86,199.70998051440668,0.0,0,304.1467798715853,1109.0112068402707,-1431.7863659226005
00:00:00.87,272.95193551732467,0.0,0,362.05357765122994,1097.339993884192,-1403.7576168042594
00:00:00.88,344.64292317451714,0.0,0,417.8363546876196,1086.7227495217455,-1375.2952109996988
00:00:00.89,414.375580993284,0.0,0,471.1814801188054,1077.1049171873246,-1346.4440127009723
00:00:00.90,481.75367410171486,0.0,0,521.7890074052865,1068.4281060969804,-1317.252871761812
00:00:00.91,546.3943467342692,0.0,0,569.3743870310922,1060.6303917365758,-1287.774320843173
00:00:00.92,607.9302976946054,0.0,0,613.6700912986537,1053.6466370422334,-1258.064251903457
00:00:00.93,666.0118674342515,0.0,0,654.4271420059217,1047.408832432291,-1228.181573873623
00:00:00.94,720.3090248879072,0.0,0,691.4165323449802,1041.8464527434269,-1198.1878534639573
00:00:00.95,770.5132427757893,0.0,0,724.4305349614746,1036.8868290280839,-1168.14694114481
00:00:00.96,816.3392507171839,0.0,0,753.2838887600883,1032.4555330863964,-1138.1245844275459
00:00:00.97,857.5266561936521,0.0,0,777.8148577293919,1028.4767725339432,-1108.1880306438438
00:00:00.98,893.8414241512635,0.0,0,797.8861557857556,1024.8737941472527,-1078.4056214808813
00:00:00.99,925.077206834458,0.0,0,813.3857323965138,1021.5692931823975,-1048.846381576547
00:00:01.00,951.0565162951536,0.0,0,824.2274145328818,1018.4858263284988,-1019.5796035123371
00:00:01.01,971.6317329146738,0.0,0,830.3514013187613,1015.5462259377216,-990.6744315618512
00:00:01.02,986.685944207868,0.0,0,831.7246085778917,1012.6740131664743,-962.1994465596676
00:00:01.03,996.1336091431724,0.0,0,828.3408613340499,1009.7938076690926,-934.2222542488283
00:00:01.04,999.921044203816,0.0,0,820.2209331823425,1006.8317315052371,-906.8090794452163
00:00:01.05,998.0267284282716,0.0,0,807.4124323191483,1003.7158049554545,-880.0243683238981
00:00:01.06,990.4614256966512,0.0,0,789.5161055064393,1000.3689346515636,-853.937798420299
00:00:01.07,977.2681235681932,0.0,0,767.3661693498073,996.7282664437237,-828.6049239238911
00:00:01.08,958.521789017376,0.0,0,741.0753610754904,992.733689797345,-804.0786694707757
00:00:01.09,934.328942456612,0.0,0,710.5454576134327,988.3244986694714,-780.412667485085
00:00:01.10,904.8270524660192,0.0,0,675.9513438230389,983.4436681249958,-757.6569798083956
00:00:01.11,870.1837546695258,0.0,0,637.4909278246291,978.0381565578026,-735.8577937516296
00:00:01.12,830.5958991958124,0.0,0,595.3840199656665,972.0591856735505,-715.0571404122969
00:00:01.13,786.2884321366183,0.0,0,549.8710871581774,965.4624966342477,-695.2926368565082
00:00:01.14,737.513117358174,0.0,0,501.68531905684847,958.2159782346008,-676.5898562953621
00:00:01.15,684.5471059286884,0.0,0,450.3704059781868,950.2808911680943,-658.9811021973379
00:00:01.15,627.6913612907011,0.0,0,396.2333471369677,941.6238982926079,-642.4933764264894
00:00:01.16,567.2689491267566,0.0,0,339.8315525751812,932.2208928907731,-627.1445494108383
00:00:01.17,503.6232016357619,0.0,0,281.4861714805877,922.053162868739,-612.9471943969097
00:00:01.18,437.1157666509335,0.0,0,221.5293637403264,911.1074785073575,-599.9084981760154
00:00:01.19,368.124552684678,0.0,0,160.30241419952787,899.3761493775477,-588.0302026701476
00:00:01.20,297.041581577036,0.0,0,98.1537949872274,886.8570500901989,-577.3085777067511
00:00:01.21,224.27076094938167,0.0,0,35.43718692397421,873.5536147282266,-567.734425134396
00:00:01.23,150.22558912075692,0.0,0,-27.490528742172316,859.4747999865017,-559.2931142532675
00:00:01.24,75.32680552793371,0.0,0,-90.27129685616272,844.635017223335,-551.9646483564377
00:00:01.25,3.6739403974420605e-13,0.0,0,-152.54792161434602,829.0540338039963,-545.7237620010925
00:00:01.26,-75.32680552793299,0.0,0,-213.96609500397463,812.7568442913717,-540.5400484542625
00:00:01.27,-150.2255891207562,0.0,0,-274.1764088946204,795.7735122103406,-536.3781165861432
00:00:01.28,-224.27076094938096,0.0,0,-332.83633934535123,778.1389832797829,-533.1977763167558
00:00:01.29,-297.0415815770353,0.0,0,-389.61219184954484,759.8928711683872,-530.9542515594557
00:00:01.30,-368.12455268467727,0.0,0,-444.180996461325,741.0792169866729,-529.5984194485474
00:00:01.31,-437.1157666509328,0.0,0,-496.23234203251764,721.7462238769981,-529.0770744889219
00:00:01.32,-503.6232016357612,0.0,0,-545.4701391351491,701.9459682049333,-545.4701391351491
00:00:01.33,-567.268949126756,0.0,0,-591.6143016498528,681.7340889884522,-591.6143016498528
00:00:01.34,-627.6913612907005,0.0,0,-634.402337462822,661.169457325151,-634.402337462822
00:00:01.35,-684.5471059286891,0.0,0,-673.5908392305254,640.3138276914685,-673.5908392305254
00:00:01.36,-737.5131173581736,0.0,0,-708.9568667393451,619.231473090987,-708.9568667393451
00:00:01.37,-786.288432136619,0.0,0,-740.2992130033695,597.9888061207628,-740.2992130033695
00:00:01.38,-830.5958991958131,0.0,0,-767.4395469043001,576.6539881047462,-767.4395469043001
00:00:01.39,-870.1837546695255,0.0,0,-790.223425879033,555.2965285112497,-790.223425879033
00:00:01.40,-904.8270524660196,0.0,0,-808.5211728989734,533.9868769267149,-808.5211728989734
00:00:01.40,-934.3289424566116,0.0,0,-822.2286127563488,512.7960099004171,-822.2286127563488
00:00:01.41,-958.5217890173758,0.0,0,-831.2676634723136,491.79501500396816,-831.2676634723136
00:00:01.42,-977.2681235681932,0.0,0,-835.5867794649299,471.0546744653916,-835.5867794649299
00:00:01.43,-990.4614256966512,0.0,0,-835.1612439575179,450.64505074003364,-835.5801304726266
00:00:01.44,-998.0267284282716,0.0,0,-829.9933089645799,430.635076369649,-835.4928363865633
00:00:01.46,-999.921044203816,0.0,0,-820.1121820586606,411.0921504567067,-835.2525136626898
00:00:01.47,-996.1336091431724,0.0,0,-805.3372200815467,392.0854415420465,-834.7850872004844
00:00:01.48,-986.685944207868,0.0,0,-785.7625728208892,373.68156631762565,-834.0191104133032
00:00:01.49,-971.6317329146742,0.0,0,-762.2181759890506,355.93313284408384,-832.8972208129243
00:00:01.50,-951.0565162951538,0.0,0,-734.3396286573291,338.8976209456243,-831.3572584354931
00:00:01.51,-925.077206834458,0.0,0,-702.2854960317203,322.6291347428533,-829.3405121479342
00:00:01.52,-893.8414241512642,0.0,0,-666.2380621398564,307.17808479156093,-826.792036366558
00:00:01.53,-857.5266561936525,0.0,0,-626.4022944411466,292.5908913660499,-823.6609466489734
00:00:01.54,-816.3392507171837,0.0,0,-583.0046795259158,278.90971057086296,-819.9006924751757
00:00:01.55,-770.5132427757898,0.0,0,-536.52857643093,266.1684873364599,-815.4730031619844
00:00:01.56,-720.3090248879071,0.0,0,-487.22785280613493,254.39666952173187,-810.3441726876742
00:00:01.57,-666.0118674342513,0.0,0,-434.6639143699054,243.63009789842502,-804.4741686514591
00:00:01.58,-607.9302976946059,0.0,0,-379.63360373641507,233.89160256038065,-797.8360348246615
00:00:01.59,-546.3943467342691,0.0,0,-322.44944036454143,225.19877376467875,-790.4081192862221
00:00:01.60,-481.7536741017148,0.0,0,-263.43619102124586,217.56385243989868,-782.1741829070819
00:00:01.61,-414.37558099328464,0.0,0,-202.92902395765995,210.99365124618683,-773.1234772984972
00:00:01.62,-344.64292317451697,0.0,0,-141.27160400358332,205.48950663290918,-763.2507917782641
00:00:01.63,-272.95193551732456,0.0,0,-78.81413940335818,201.0472621635925,-752.5564690849062
00:00:01.64,-199.70998051440745,0.0,0,-15.911391490356905,197.65728320024954,-741.0463897474914
00:00:01.65,-125.333233564304,0.0,0,47.07934149146908,195.30450286104985,-728.7319251968827
00:00:01.66,-50.2443181797687,0.0,0,109.80025496358306,193.96849898765194,-715.6298598818754
00:00:01.67,25.1300954433372,0.0,0,171.89507144914728,193.62360168236282,-701.7622828298282
00:00:01.68,100.36171485121348,0.0,0,233.01106531604455,233.01106531604455,-687.156449265049
00:00:01.69,175.0230589752753,0.0,0,292.80106732244315,292.80106732244315,-671.8446130683694
00:00:01.70,248.68988716485467,0.0,0,350.925437575437,350.925437575437,-655.86383102706
00:00:01.71,320.94360980720825,0.0,0,407.05399569273516,407.05399569273516,-639.2557399845632
00:00:01.72,391.3736668372018,0.0,0,460.8678972005198,460.8678972005198,-622.0663081535463
00:00:01.73,459.5798606214879,0.0,0,512.0614455060604,512.0614455060604,-604.3455620026149
00:00:01.74,525.1746299612947,0.0,0,560.3438291497085,560.3438291497085,-586.1472902658599
00:00:01.75,587.7852522924727,0.0,0,605.4407744654471,605.4407744654471,-567.5287267544331
00:00:01.76,647.0559615694444,0.0,0,647.0961042598076,647.0961042598076,-548.5502137698356
00:00:01.77,702.6499697988484,0.0,0,685.0731936529592,685.0731936529592,-529.2748480288544
00:00:01.78,754.2513807361036,0.0,0,719.1563148100902,719.1563148100902,-509.7681111094959
00:00:01.79,801.5669848708767,0.0,0,749.1518629225322,749.1518629225322,-490.09748651524546
00:00:01.80,844.3279255020146,0.0,0,774.8894564728117,774.8894564728117,-470.3320655310571
00:00:01.81,882.2912264349532,0.0,0,796.2229055321296,796.2229055321296,-450.5421441081948
00:00:01.82,915.2411726209176,0.0,0,813.0310425886246,813.0310425886246,-430.798813066057
00:00:01.83,942.9905358928642,0.0,0,825.2184111858766,825.2184111858766,-411.17354393712054
00:00:01.84,965.381638833274,0.0,0,832.7158084590355,832.7158084590355,-391.7377728059306
00:00:01.85,982.2872507286888,0.0,0,835.4806784861328,835.4806784861328,-372.5624845044921
00:00:01.86,993.6113105200084,0.0,0,833.4973542198048,835.4496890444714,-353.71779952442495
00:00:01.87,999.2894726405892,0.0,0,826.7771466250446,835.3141805691678,-335.2725659908395
00:00:01.88,999.2894726405892,0.0,0,815.3582805167804,835.0023696308492,-317.29395901415796
00:00:01.89,993.6113105200084,0.0,0,798.5959071970827,834.4335186553216,-299.85817985460733
00:00:01.90,982.2872507286886,0.0,0,777.3265349644778,833.5412220351521,-283.0271686855591
00:00:01.91,965.3816388332737,0.0,0,752.3752187268857,832.2730032334605,-266.8490063822397
00:00:01.92,942.9905358928646,0.0,0,723.1372175540128,830.5677565822191,-251.38047163323574
00:00:01.93,915.2411726209182,0.0,0,689.7792445438632,828.3679360816197,-236.67485106796858
00:00:01.94,882.2912264349537,0.0,0,652.4913944491188,825.6198651186119,-222.78162848176407
00:00:01.95,844.3279255020152,0.0,0,611.4860649631917,822.2740244911835,-209.74619577168664
00:00:01.96,801.5669848708774,0.0,0,566.9967512044002,818.2853170960775,-197.6095872251853
00:00:01.97,754.2513807361044,0.0,0,519.986490516931,813.6243979307783,-186.39714851046472
00:00:01.98,702.6499697988493,0.0,0,469.98162528494305,808.2549796081871,-176.14123016991147
00:00:01.99,647.0559615694452,0.0,0,416.5625527977079,802.1347854392734,-166.88023356104242
00:00:02.00,587.7852522924736,0.0,0,360.7797650415926,795.2386132455597,-158.63554608287623
00:00:02.01,525.1746299612942,0.0,0,302.95006713153447,787.546604712528,-151.42327087640106
00:00:02.02,459.5798606214888,0.0,0,243.4019033249088,779.0443437533465,-145.25412752950558
00:00:02.03,391.3736668372012,0.0,0,182.4734903262103,769.7229241685475,-140.13338350051
00:00:02.04,320.9436098072093,0.0,0,120.51089508321667,759.5789862140891,-136.06081664763929
00:00:02.04,248.68988716485745,0.0,0,57.86606799595408,748.6147218669307,-133.03070907508314
00:00:02.06,175.02305897527637,0.0,0,-5.105157286802175,736.8378487551537,-131.03187232839124
00:00:02.06,100.36171485121632,0.0,0,-68.04508611886794,724.2615528977472,-130.04770379386744
00:00:02.08,25.130095443338305,0.0,0,-130.59619566587116,710.9044005764406,-130.59619566587116
00:00:02.08,-50.2443181797676,0.0,0,-192.40316672235622,696.7902198373969,-192.40316672235622
00:00:02.10,-125.3332335643047,0.0,0,-253.11490299238034,681.9479522931816,-253.11490299238034
00:00:02.10,-199.70998051440637,0.0,0,-312.386526360394,666.4114760642195,-312.386526360394
00:00:02.12,-272.9519355173252,0.0,0,-369.8813368155985,650.2194008629724,-369.8813368155985
00:00:02.12,-344.64292317451594,0.0,0,-425.27272589376946,633.4148363823983,-425.27272589376946
00:00:02.14,-414.37558099328527,0.0,0,-478.2460327646478,616.0451353019757,-478.2460327646478
00:00:02.14,-481.7536741017153,0.0,0,-528.500332418837,598.1616123688381,-528.500332418837
00:00:02.16,-546.3943467342682,0.0,0,-575.7501457939653,579.8192411475443,-575.7501457939653
00:00:02.16,-607.9302976946036,0.0,0,-619.7270621233835,561.076330158936,-619.7270621233835
00:00:02.18,-666.0118674342518,0.0,0,-660.1812642894151,541.9941802456805,-660.1812642894151
00:00:02.18,-720.3090248879063,0.0,0,-696.882948514299,522.6367251088058,-696.882948514299
00:00:02.20,-770.5132427757901,0.0,0,-729.6236303223275,503.07015705519433,-729.6236303223275
00:00:02.20,-816.3392507171842,0.0,0,-758.2173293528986,483.3625400800679,-758.2173293528986
00:00:02.22,-857.5266561936519,0.0,0,-782.5016262925617,463.58341248049555,-782.5016262925617
00:00:02.23,-893.8414241512629,0.0,0,-802.3385859207671,443.8033812554758,-802.3385859207671
00:00:02.24,-925.0772068344584,0.0,0,-817.6155410247745,424.0937105948469,-817.6155410247745
00:00:02.25,-951.0565162951534,0.0,0,-828.2457327297292,404.5259067929004,-828.2457327297292
00:00:02.26,-971.6317329146744,0.0,0,-834.1688036057666,385.1713019429212,-834.1688036057666
00:00:02.27,-986.685944207868,0.0,0,-835.351140750547,366.10063877583576,-835.351140750547
00:00:02.28,-996.1336091431724,0.0,0,-831.7860668980724,347.38365899968096,-835.295436471602
00:00:02.29,-999.921044203816,0.0,0,-823.493878468164,329.0886974767459,-835.1110371277982
00:00:02.30,-998.0267284282716,0.0,0,-810.5217303406786,311.28228454209864,-834.7268292092494
00:00:02.31,-990.4614256966512,0.0,0,-792.4699386268932,294.03615605508315,-834.0665652939001
00:00:02.31,-977.2681235681938,0.0,0,-770.1723108142386,277.40789876025,-833.0682175676554
00:00:02.33,-958.5217890173756,0.0,0,-743.7411954667002,261.45244416295395,-831.672482847328
00:00:02.33,-934.328942456612,0.0,0,-713.0780002850821,246.2254059684534,-829.8194440572929
00:00:02.35,-904.8270524660202,0.0,0,-678.3572593611057,231.77880182267904,-827.452847421415
00:00:02.35,-870.1837546695269,0.0,0,-639.7765475857926,218.16074948817166,-824.5204052364834
00:00:02.37,-830.5958991958126,0.0,0,-597.5553587387719,205.41518529712567,-820.9740763849567
00:00:02.37,-786.2884321366197,0.0,0,-551.9338589926276,193.5816064800983,-816.7703229882015
00:00:02.39,-737.5131173581732,0.0,0,-503.6449522995762,182.68744149916589,-811.8777390711917
00:00:02.39,-684.5471059286887,0.0,0,-452.2320575587783,172.76682432638552,-806.2582752975603
00:00:02.41,-627.6913612907014,0.0,0,-398.00191613852957,163.84856275662122,-799.8792696857005
00:00:02.41,-567.2689491267585,0.0,0,-341.51169312666485,155.95230875844487,-792.7172763019655
00:00:02.43,-503.6232016357607,0.0,0,-283.0823050044973,149.0923929183989,-784.7542298754425
00:00:02.43,-437.1157666509338,0.0,0,-223.0456905880407,143.2777353636108,-775.9775339490769
00:00:02.45,-368.12455268467664,0.0,0,-161.74292470485625,138.511787550041,-766.3801181796359
00:00:02.46,-297.04158157703466,0.0,0,-99.52227996728925,134.7925052450827,-755.960464457568
00:00:02.47,-224.27076094938204,0.0,0,-36.73724765503286,132.1123528560184,-744.7226016950284
00:00:02.48,-150.22558912075905,0.0,0,26.255471047666944,130.4583390777629,-732.6760693084237
00:00:02.49,-75.32680552793232,0.0,0,89.0979920463825,129.81208365539757,-719.8358495997549
00:00:02.50,-7.347880794884119e-13,0.0,0,151.43328204505457,151.43328204505457,-706.2222694178047
00:00:02.51,75.3268055279344,0.0,0,212.907187413148,212.907187413148,-691.860871654821
00:00:02.52,150.2255891207576,0.0,0,273.1704466833353,273.1704466833353,-676.7822573057873
00:00:02.53,224.2707609493806,0.0,0,331.8806752446304,331.8806752446304,-661.021898984687
00:00:02.54,297.04158157703324,0.0,0,388.7043109538603,388.7043109538603,-644.6199269543972
00:00:02.55,368.1245526846786,0.0,0,443.3185096104244,443.3185096104244,-627.6208888830719
00:00:02.56,437.11576665093247,0.0,0,495.41297952416164,495.41297952416164,-610.0734846892088
00:00:02.56,503.6232016357595,0.0,0,544.6917447522111,544.6917447522111,-592.0302779791866
00:00:02.58,567.2689491267572,0.0,0,590.874826986062,590.874826986062,-573.5473857141046
00:00:02.58,627.6913612907002,0.0,0,633.6998365322204,633.6998365322204,-554.6841478665058
00:00:02.60,684.5471059286876,0.0,0,672.9234633464541,672.9234633464541,-535.5027789413033
00:00:02.60,737.5131173581722,0.0,0,708.3228596494771,708.3228596494771,-516.0680033383223
00:00:02.62,786.2884321366188,0.0,0,739.6969062679946,739.6969062679946,-496.4466766257236
00:00:02.62,830.5958991958119,0.0,0,766.8673555056937,766.8673555056937,-476.70739487367024
00:00:02.64,870.1837546695263,0.0,0,789.6798440503571,789.6798440503571,-456.9200942654823
00:00:02.64,904.8270524660196,0.0,0,808.0047701617309,808.0047701617309,-437.1556432588071
00:00:02.66,934.3289424566116,0.0,0,821.7380301559685,821.7380301559685,-417.48542961170125
00:00:02.67,958.5217890173752,0.0,0,830.8016100019526,830.8016100019526,-397.9809446177379
00:00:02.68,977.2681235681936,0.0,0,835.1440286680867,835.1440286680867,-378.71336691014693
00:00:02.69,990.4614256966512,0.0,0,834.7406307005167,835.1377255748433,-359.7531481974803
00:00:02.70,998.0267284282716,0.0,0,829.5937263704292,835.0511005872744,-341.1696032823567
00:00:02.71,999.921044203816,0.0,0,819.7325785942176,834.8117486811328,-323.0305066905352
00:00:02.72,996.1336091431724,0.0,0,804.9765967903257,834.3455744328389,-305.40539569864677
00:00:02.73,986.6859442078684,0.0,0,785.4199806942294,833.5811120306731,-288.36124919250807
00:00:02.74,971.631732914674,0.0,0,761.8927134687236,832.4609808031427,-271.95103102592634
00:00:02.75,951.056516295154,0.0,0,734.0304392630186,830.9230035915782,-256.23257055266157
00:00:02.76,925.0772068344572,0.0,0,701.9917661071254,828.9084530058836,-241.2603152923524
00:00:02.77,893.8414241512636,0.0,0,665.9590187114915,826.3623680950337,-227.08501319854236
00:00:02.78,857.5266561936527,0.0,0,626.1372031841998,823.2338498933019,-213.753416067562
00:00:02.79,816.339250717185,0.0,0,582.7528428318163,819.4763341579662,-201.3080057722592
00:00:02.80,770.5132427757889,0.0,0,536.2893315715355,815.0515372425532,-189.7830473762624
00:00:02.81,720.3090248879073,0.0,0,487.0005701897103,809.9257408823526,-179.2083033517941
00:00:02.81,666.0118674342528,0.0,0,434.44799588430186,804.058901116758,-169.6199236762301
00:00:02.83,607.9302976946049,0.0,0,379.4284811750916,797.4240508051694,-161.0410423504282
00:00:02.83,546.3943467342694,0.0,0,322.2545739312843,789.999527729015,-153.48954834602645
00:00:02.85,481.7536741017167,0.0,0,263.2510679096514,781.7690830443374,-146.97797621703148
00:00:02.85,414.3755809932866,0.0,0,202.75315700164532,772.7219591999203,-141.51342726048966
00:00:02.87,344.6429231745173,0.0,0,141.10453039536966,762.8529368748492,-137.09752167211687
00:00:02.87,272.9519355173266,0.0,0,78.65541947555542,752.1623506654853,-133.7263819666845
00:00:02.89,199.70998051440603,0.0,0,15.760607558944159,740.6560734294455,-131.39064775534655
00:00:02.89,125.3332335643044,0.0,0,-47.22258622631085,728.3454693723244,-130.07552179395537
00:00:02.91,50.24431817977084,0.0,0,-109.93633746168297,715.247316140543,-129.76084703876361
00:00:02.92,-25.13009544333506,0.0,0,-172.02434982234237,701.3836963598729,-172.02434982234237
00:00:02.93,-100.36171485121488,0.0,0,-233.13387977057948,686.7818592328347,-233.13387977057948
00:00:02.94,-175.02305897527492,0.0,0,-292.91774105425105,671.4740529783489,-292.91774105425105
00:00:02.95,-248.689887164856,0.0,0,-351.0362776206549,655.4973290627395,-351.0362776206549
00:00:02.96,-320.9436098072096,0.0,0,-407.1592937356923,638.893319331514,-407.1592937356923
00:00:02.97,-391.3736668372015,0.0,0,-460.96793034132935,621.7079873053758,-460.96793034132935
00:00:02.98,-459.5798606214859,0.0,0,-512.1564769898299,603.9913550507632,-512.1564769898299
00:00:02.99,-525.174629961296,0.0,0,-560.4341090592893,585.7972071740437,-560.4341090592893
00:00:03.00,-587.7852522924725,0.0,0,-605.5265403795486,567.1827736185188,-605.5265403795486
00:00:03.01,-647.0559615694455,0.0,0,-647.1775818782045,548.2083930638825,-647.1775818782045
00:00:03.02,-702.6499697988495,0.0,0,-685.1505973904364,528.9371588380337,-685.1505973904364
00:00:03.03,-754.2513807361033,0.0,0,-719.2298483606934,509.4345493505536,-719.2298483606934
00:00:03.04,-801.5669848708754,0.0,0,-749.2217197956055,489.76804514514487,-749.2217197956055
00:00:03.05,-844.3279255020154,0.0,0,-774.9558205022312,470.00673474440464,-774.9558205022312
00:00:03.06,-882.2912264349529,0.0,0,-796.2859513600778,450.2209115240221,-796.2859513600778
00:00:03.07,-915.2411726209184,0.0,0,-813.0909361251756,430.48166390450336,-813.0909361251756
00:00:03.08,-942.9905358928648,0.0,0,-825.2753100456001,410.860461186533,-825.2753100456001
00:00:03.08,-965.3816388332738,0.0,0,-832.7698623757728,391.42873738087195,-832.7698623757728
00:00:03.10,-982.2872507286884,0.0,0,-835.5320297070332,372.25747539512344,-835.5320297070332
00:00:03.10,-993.611310520008,0.0,0,-833.54613787966,353.41679393770494,-835.5010001472305
00:00:03.12,-999.2894726405892,0.0,0,-826.8234911019068,334.97553948396103,-835.3654140683973
00:00:03.12,-999.2894726405892,0.0,0,-815.4023077697997,317.00088562062103,-835.0534905324816
00:00:03.14,-993.6113105200084,0.0,0,-798.6377330874512,299.5690322033074,-834.4844943224031
00:00:03.14,-982.2872507286888,0.0,0,-777.3662695603277,282.7419181132506,-833.5920220604957
00:00:03.16,-965.3816388332742,0.0,0,-752.4129665929433,266.56762303971635,-832.3235993188151
00:00:03.16,-942.9905358928652,0.0,0,-723.1730780267674,251.10292458555256,-830.6181224236269
00:00:03.18,-915.2411726209176,0.0,0,-689.8133119929802,236.401108389013,-828.4180472606481
00:00:03.18,-882.2912264349538,0.0,0,-652.5237585257802,222.51165734346935,-825.6696989991658
00:00:03.20,-844.3279255020144,0.0,0,-611.5168108360198,209.47996252816483,-822.3235601216167
00:00:03.20,-801.5669848708765,0.0,0,-567.0259597835869,197.34705749204372,-818.3345351163349
00:00:03.22,-754.2513807361046,0.0,0,-520.0142386671583,186.13828723955618,-813.6732804843165
00:00:03.23,-702.6499697988507,0.0,0,-470.00798602765894,175.88600171975594,-808.3035102584312
00:00:03.24,-647.0559615694442,0.0,0,-416.587595503288,166.62860176314587,-802.1829490903821
00:00:03.25,-587.785252292474,0.0,0,-360.80355561189396,158.38747430416086,-795.2863960672806
00:00:03.26,-525.1746299612945,0.0,0,-302.9726681733204,151.17872207795023,-787.5939940689375
00:00:03.27,-459.5798606214876,0.0,0,-243.42337431460544,145.01306432181656,-779.0913281352761
00:00:03.28,-391.3736668372032,0.0,0,-182.49388776642223,139.89576819543782,-769.7694931295127
00:00:03.29,-320.9436098072114,0.0,0,-120.53027265141787,135.8266113072057,-759.6251303095426
00:00:03.30,-248.68988716485435,0.0,0,-57.88447668574557,132.79987555731583,-748.6604325966707
00:00:03.31,-175.02305897527674,0.0,0,5.087669031499921,130.80437233034996,-736.8831185087306
00:00:03.32,-100.36171485121318,0.0,0,68.02847227633119,129.82349889200592,-724.306374902714
00:00:03.33,-25.13009544333689,0.0,0,130.58041251546135,130.58041251546135,-710.948768849305
00:00:03.33,50.244318179769,0.0,0,192.38817272946716,192.38817272946716,-696.8341291371366
00:00:03.35,125.33323356430256,0.0,0,253.10065869913595,253.10065869913595,-681.9913980771948
00:00:03.35,199.70998051440424,0.0,0,312.3729942818121,312.3729942818121,-666.4544544465854
00:00:03.37,272.95193551732484,0.0,0,369.86848134094527,369.86848134094527,-650.2619085749052
00:00:03.37,344.6429231745156,0.0,0,425.2605131928489,425.2605131928489,-633.456870734784
00:00:03.39,414.3755809932849,0.0,0,478.2344306987735,478.2344306987735,-616.0866941498847
00:00:03.39,481.75367410171503,0.0,0,528.489310456256,528.489310456256,-598.2026940779137
00:00:03.41,546.3943467342679,0.0,0,575.7396749295134,575.7396749295134,-579.8598445621727
00:00:03.41,607.9302976946034,0.0,0,619.7171148021537,619.7171148021537,-561.1164545721051
00:00:03.43,666.0118674342515,0.0,0,660.1718143342466,660.1718143342466,-542.0338253704433
00:00:03.43,720.309024887906,0.0,0,696.8739710568886,696.8739710568886,-522.6758910512663
00:00:03.45,770.5132427757899,0.0,0,729.6151017377879,729.6151017377879,-503.1088442889373
00:00:03.46,816.339250717184,0.0,0,758.2092271975862,758.2092271975862,-483.40074942196037
00:00:03.47,857.5266561936517,0.0,0,782.4939292450149,782.4939292450149,-463.62114506778886
00:00:03.48,893.8414241512628,0.0,0,802.3312737255976,802.3312737255976,-443.8406385241422
00:00:03.49,925.077206834458,0.0,0,817.6085944393635,817.6085944393635,-424.1304942590874
00:00:03.50,951.0565162951532,0.0,0,828.2391334735888,828.2391334735888,-404.5622188257644
00:00:03.51,971.6317329146744,0.0,0,834.1625343124331,834.1625343124331,-385.20714455798003
00:00:03.52,986.685944207868,0.0,0,835.3451849218801,835.3451849218801,-366.13601440985724
00:00:03.53,996.1336091431724,0.0,0,831.780408860839,835.2894852959263,-347.4185702962526
00:00:03.54,999.921044203816,0.0,0,823.4885033327922,835.1050949527523,-329.12314727079877
00:00:03.55,998.0267284282716,0.0,0,810.5166239620754,834.720900093523,-311.31627584528513
00:00:03.56,990.4614256966512,0.0,0,792.4650875672202,834.0606530227996,-294.06969204196474
00:00:03.57,977.2681235681932,0.0,0,770.1677023075492,833.0623256678738,-277.4409827552536
00:00:03.58,958.5217890173756,0.0,0,743.7368173853454,831.6666146009593,-261.4850796280567
00:00:03.58,934.3289424566124,0.0,0,713.073841107795,829.8136025151287,-246.25759649155904
00:00:03.60,904.8270524660204,0.0,0,678.353308142683,827.4470354155592,-231.810551106649
00:00:03.60,870.1837546695272,0.0,0,639.7727939282911,824.5146253923206,-218.19206134047806
00:00:03.62,830.5958991958129,0.0,0,597.5517927641456,820.9683311325053,-205.44606362009333
00:00:03.62,786.2884321366199,0.0,0,551.9304713167327,816.7646145728839,-193.61205526170542
00:00:03.64,737.5131173581734,0.0,0,503.6417340074762,811.8720695640494,-182.71746480437446
00:00:03.64,684.5471059286889,0.0,0,452.22900018128337,806.2526466049437,-172.79642628897355
00:00:03.66,627.6913612907017,0.0,0,397.9990116299094,799.8736835584588,-163.877747571491
00:00:03.67,567.2689491267586,0.0,0,341.5089338434759,792.7117343441622,-155.98108067438216
00:00:03.68,503.623201635761,0.0,0,283.07968368546796,784.7487335526201,-149.1207562312595
00:00:03.69,437.1157666509342,0.0,0,223.04320033496288,775.9720845960942,-143.30569440991226
00:00:03.70,368.124552684677,0.0,0,161.7405589644323,766.3747170080994,-138.53934670093813
00:00:03.71,297.04158157703495,0.0,0,99.5200325138866,755.9551125628774,-134.8196689007065
00:00:03.72,224.2707609493824,0.0,0,36.73511257430023,744.7173000630559,-132.13912544015952
00:00:03.73,150.2255891207594,0.0,0,-26.257499374362936,732.6708188218462,-130.48472503288144
00:00:03.74,75.32680552793268,0.0,0,-89.09991895674369,719.8306510440557,-129.8380874379418
00:00:03.75,1.102182119232618e-12,0.0,0,-151.43511260989771,706.2171234869627,-151.43511260989771
00:00:03.76,-75.32680552793403,0.0,0,-212.90892644974898,691.8557789567016,-212.90892644974898
00:00:03.77,-150.22558912075723,0.0,0,-273.17209876810625,676.7772183672514,-273.17209876810625
00:00:03.78,-224.27076094938025,0.0,0,-331.88224472516276,661.0169142564324,-331.88224472516276
00:00:03.79,-297.0415815770329,0.0,0,-388.70580196036605,644.6149968155449,-388.70580196036605
00:00:03.80,-368.12455268467824,0.0,0,-443.3199260666049,627.6160136455113,-443.3199260666049
00:00:03.81,-437.1157666509321,0.0,0,-495.41432515753314,610.0686646017137,-495.41432515753314
00:00:03.82,-503.6232016357623,0.0,0,-544.693023103914,592.0255132313133,-544.693023103914
00:00:03.83,-567.2689491267569,0.0,0,-590.8760414201797,573.5426764398837,-590.8760414201797
00:00:03.83,-627.6913612906999,0.0,0,-633.7009902446325,554.6794941479382,-633.7009902446325
00:00:03.85,-684.5471059286873,0.0,0,-672.9245593732455,535.4981808116696,-672.9245593732455
00:00:03.85,-737.5131173581719,0.0,0,-708.323900874929,516.0634607853165,-708.323900874929
00:00:03.87,-786.2884321366186,0.0,0,-739.6978954321737,496.4421895944182,-739.6978954321737
00:00:03.87,-830.5958991958116,0.0,0,-766.868295211664,476.70296326932316,-766.868295211664
00:00:03.89,-870.183754669526,0.0,0,-789.6807367710289,456.9157179561927,-789.6807367710289
00:00:03.89,-904.8270524660194,0.0,0,-808.0056182463692,437.15132207802765,-808.0056182463692
00:00:03.91,-934.3289424566116,0.0,0,-821.7388358363748,417.4811633606151,-821.7388358363748
00:00:03.92,-958.5217890173752,0.0,0,-830.8023753983382,397.9767330675064,-830.8023753983382
00:00:03.93,-977.2681235681932,0.0,0,-835.1447557946532,378.7092098040352,-835.1447557946532
00:00:03.94,-990.4614256966512,0.0,0,-834.7413214707549,359.7490452528666,-835.1384521333423
00:00:03.95,-998.0267284282716,0.0,0,-829.5943826021553,341.1655541926319,-835.0518260469175
00:00:03.96,-999.921044203816,0.0,0,-819.7332020143574,323.0265111268977,-834.8124725464088
00:00:03.97,-996.1336091431726,0.0,0,-804.9771890394588,305.4014533117984,-834.3462962416127
00:00:03.98,-986.6859442078684,0.0,0,-785.420543330906,288.3573596142561,-833.5818313523829
00:00:03.99,-971.631732914674,0.0,0,-761.8932479735665,271.94719387069637,-832.4616972370889
00:00:04.00,-951.056516295154,0.0,0,-734.0309470426193,256.2287854189258,-830.9237167653002
00:00:04.00,-925.0772068344588,0.0,0,-701.9922484977461,241.25658176397778,-828.9091625736197
00:00:04.02,-893.8414241512621,0.0,0,-665.9594769825811,227.0813308460628,-826.3630737362597
00:00:04.03,-857.5266561936528,0.0,0,-626.1376385417352,213.74978444937847,-823.2345513113453
00:00:04.04,-816.3392507171851,0.0,0,-582.7532564214747,201.30442443577138,-819.4770310786911
00:00:04.04,-770.5132427757914,0.0,0,-536.2897244817111,189.77951585893572,-815.0522294131133
00:00:04.06,-720.309024887905,0.0,0,-487.000943454377,179.2048211821652,-809.926428070008
00:00:04.07,-666.0118674342506,0.0,0,-434.4483504857355,169.61649037485427,-804.0595831077537
00:00:04.08,-607.9302976946051,0.0,0,-379.4288180464533,161.03765743077133,-797.4247274036709
00:00:04.08,-546.3943467342698,0.0,0,-322.2548939590776,153.48621131530496,-790.0001987560992
00:00:04.09,-481.75367410172,0.0,0,-263.25137193605514,146.97468657700244,-781.7697483370359
00:00:04.11,-414.3755809932837,0.0,0,-202.75344582672875,141.51018450819416,-772.7226186103123
00:00:04.12,-344.64292317451765,0.0,0,-141.10480477919958,137.09432530057862,-762.8535902692012
00:00:04.12,-272.95193551732694,0.0,0,-78.65568014019351,133.72323146556656,-752.1629979234355
00:00:04.13,-199.7099805144099,0.0,0,-15.760855190350469,131.38754261156785,-740.656714443231
00:00:04.15,-125.33323356430124,0.0,0,47.222350976475084,130.07246149226953,-728.346104046048
00:00:04.16,-50.2443181797712,0.0,0,109.9361139743382,129.75783106230185,-715.2479443894795
00:00:04.16,25.13009544333469,0.0,0,172.02413750936495,172.02413750936495,-701.38431810981
00:00:04.17,100.36171485121098,0.0,0,233.13367807325093,233.13367807325093,-686.7824744194497
00:00:04.19,175.02305897527808,0.0,0,292.91754944178894,292.91754944178894,-671.4746615466179
00:00:04.20,248.6898871648557,0.0,0,351.03609558881584,351.03609558881584,-655.4979309663768
00:00:04.20,320.94360980720927,0.0,0,407.15912080544524,407.15912080544524,-638.8939145324421
00:00:04.21,391.37366683720114,0.0,0,460.96776605759464,460.96776605759464,-621.7085757732227
00:00:04.23,459.5798606214888,0.0,0,512.1563209202819,512.1563209202819,-603.9919367623867
00:00:04.24,525.1746299612956,0.0,0,560.4339607932192,560.4339607932192,-585.7977821130803
00:00:04.25,587.7852522924693,0.0,0,605.5263995267819,605.5263995267819,-567.1833417749574
00:00:04.25,647.0559615694425,0.0,0,647.1774480680762,647.1774480680762,-548.20895443366
00:00:04.27,702.6499697988492,0.0,0,685.1504702708141,685.1504702708141,-528.9377134226526
00:00:04.28,754.2513807361054,0.0,0,719.2297275970524,719.2297275970524,-509.4350971567197
00:00:04.29,801.5669848708752,0.0,0,749.2216050701461,749.2216050701461,-489.7685861844249
00:00:04.29,844.3279255020152,0.0,0,774.955711513045,774.955711513045,-470.00726903290195
00:00:04.31,882.2912264349545,0.0,0,796.2858478203509,796.2858478203509,-450.2214390820699
00:00:04.32,915.2411726209168,0.0,0,813.0908377624351,813.0908377624351,-430.48218475637447
00:00:04.33,942.9905358928644,0.0,0,825.2752166009965,825.2752166009965,-410.8609753601655
00:00:04.33,965.3816388332727,0.0,0,832.7697736033992,832.7697736033992,-391.4292449076098
00:00:04.35,982.2872507286896,0.0,0,835.5319453732786,835.5319453732786,-372.2579763094709
00:00:04.36,993.6113105200084,0.0,0,833.5460577625934,835.5009158793616,-353.4172882770949
00:00:04.37,999.2894726405892,0.0,0,826.8234149906937,835.3653299279762,-334.9760272885357
00:00:04.37,999.2894726405892,0.0,0,815.4022354641468,835.0534065769789,-317.00136693302505
00:00:04.38,993.6113105200092,0.0,0,798.6376643970812,834.484410605418,-299.56950706849216
00:00:04.40,982.2872507286882,0.0,0,777.3662043044764,833.5919386319658,-282.74238657828954
00:00:04.41,965.3816388332745,0.0,0,752.4129045998844,832.3235162252146,-266.5680851536306
00:00:04.41,942.9905358928642,0.0,0,723.1730191333617,830.6180397081544,-251.10338039914635
00:00:04.42,915.2411726209192,0.0,0,689.8132560442448,828.4179649634058,-236.40155795471836
00:00:04.44,882.2912264349541,0.0,0,652.5237053744816,825.6696171573288,-222.5121007151996
00:00:04.45,844.3279255020146,0.0,0,611.5167603422861,822.3234787695937,-209.4803997611764
00:00:04.46,801.5669848708789,0.0,0,567.0259118145401,818.3344542859211,-197.3474886428058
00:00:04.46,754.2513807361048,0.0,0,520.0141930965638,813.6732002048374,-186.13871236562815
00:00:04.48,702.6499697988485,0.0,0,470.0079427355942,808.3034305568805,-175.88642087967156
00:00:04.49,647.0559615694418,0.0,0,416.5875543758264,802.1828699915515,-166.6290150163044
00:00:04.50,587.7852522924743,0.0,0,360.80351654080505,795.2863175938835,-158.38788171072457
00:00:04.50,525.1746299613009,0.0,0,302.9726310557857,787.5939162417258,-151.17912369874784
00:00:04.52,459.5798606214848,0.0,0,243.4233390529476,779.0912509731511,-145.0134602182526
00:00:04.53,391.37366683720353,0.0,0,182.49385426784787,769.7694166496308,-139.89615842940728
00:00:04.54,320.9436098072083,0.0,0,120.53024082777179,759.6250545274142,-135.82699594101385
00:00:04.54,248.68988716485816,0.0,0,57.884446453281896,748.6603575262559,-132.800254653603
00:00:04.56,175.02305897527708,0.0,0,-5.087697752340979,736.8830441625278,-130.80474595202077
00:00:04.57,100.36171485121352,0.0,0,-68.02849956112975,724.3063012918457,-129.8238671021631
00:00:04.58,25.130095443340814,0.0,0,-130.58043843601962,710.9486959835978,-130.58043843601962
00:00:04.58,-50.24431817976864,0.0,0,-192.38819735399719,696.8340570251978,-192.38819735399719
00:00:04.60,-125.33323356430571,0.0,0,-253.10068209243903,681.9913267264848,-253.10068209243903
00:00:04.61,-199.70998051441083,0.0,0,-312.3730165054508,666.4543838634858,-312.3730165054508
00:00:04.62,-272.9519355173245,0.0,0,-369.868502453402,650.2618387647844,-369.868502453402
00:00:04.62,-344.6429231745119,0.0,0,-425.2605332496837,633.4568017020583,-425.2605332496837
00:00:04.63,-414.37558099328135,0.0,0,-478.23444975276607,616.0866258980767,-478.23444975276607
00:00:04.65,-481.7536741017147,0.0,0,-528.489328557549,598.2026266097075,-528.489328557549
00:00:04.66,-546.3943467342706,0.0,0,-575.7396921257414,579.8597778794662,-575.7396921257414
00:00:04.67,-607.930297694603,0.0,0,-619.7171311385703,561.1163886760594,-619.7171311385703
00:00:04.67,-666.0118674342513,0.0,0,-660.1718298538432,542.0337602615297,-660.1718298538432
00:00:04.69,-720.3090248879083,0.0,0,-696.8739858005054,522.6758267293104,-696.8739858005054
00:00:04.70,-770.5132427757875,0.0,0,-729.6151157442232,503.10878075316145,-729.6151157442232
00:00:04.71,-816.3392507171837,0.0,0,-758.2092405036992,483.400686671023,-758.2092405036992
00:00:04.71,-857.5266561936496,0.0,0,-782.4939418858221,463.6210830998223,-782.4939418858221
00:00:04.73,-893.8414241512658,0.0,0,-802.3312857343649,443.8405773367881,-802.3312857343649
00:00:04.74,-925.077206834458,0.0,0,-817.6086058476926,424.1304338495306,-817.6086058476926
00:00:04.75,-951.0565162951542,0.0,0,-828.2391443115018,404.5621591907645,-828.2391443115018
00:00:04.75,-971.6317329146732,0.0,0,-834.16254460845,385.2070856939018,-834.16254460845
00:00:04.77,-986.685944207868,0.0,0,-835.3451947030965,366.1359563126987,-835.3451947030965
00:00:04.78,-996.1336091431726,0.0,0,-831.7804181529943,347.4185129616722,-835.2894950695011
00:00:04.79,-999.921044203816,0.0,0,-823.4885121603396,329.1230906941408,-835.1051047115454
00:00:04.79,-998.0267284282716,0.0,0,-810.5166323482458,311.3162200216035,-834.7209098308689
00:00:04.81,-990.4614256966508,0.0,0,-792.465095534082,294.0696369660459,-834.0606627324815
00:00:04.82,-977.268123568194,0.0,0,-770.1677098760683,277.44092842163786,-833.0623353441001
00:00:04.83,-958.5217890173758,0.0,0,-743.736824575438,261.48502603105857,-831.6666242383398
00:00:04.83,-934.3289424566136,0.0,0,-713.0738479383831,246.25754362528605,-829.8136121086529
00:00:04.85,-904.8270524660174,0.0,0,-678.3533146317417,231.81049896501997,-827.4470449605762
00:00:04.86,-870.1837546695256,0.0,0,-639.7728000928971,218.19200991724003,-824.5146348845187
00:00:04.87,-830.5958991958112,0.0,0,-597.5517986205209,205.4460129088375,-820.9683405678937
00:00:04.87,-786.2884321366201,0.0,0,-551.9304768802891,193.6120052558824,-816.7646239477749
00:00:04.88,-737.5131173581784,0.0,0,-503.6417392928545,182.71741549730837,-811.8720788750418
00:00:04.90,-684.5471059286866,0.0,0,-452.2290052023927,172.79637767387553,-806.2526558489067
00:00:04.91,-627.6913612907019,0.0,0,-397.99901639996403,163.8776996414718,-799.8736927325169
00:00:04.92,-567.2689491267561,0.0,0,-341.5089383750274,155.98103342246398,-792.7117434456811
00:00:04.92,-503.6232016357645,0.0,0,-283.07968799044176,149.12070965038734,-784.748742579193
00:00:04.94,-437.1157666509345,0.0,0,-223.04320442468753,143.30564849296428,-775.9720935455289
00:00:04.95,-368.1245526846773,0.0,0,-161.7405628496715,138.53930144073558,-766.3747258784061
00:00:04.96,-297.0415815770388,0.0,0,-99.52003620486408,134.81962429002309,-755.955121352257
00:00:04.96,-224.27076094938275,0.0,0,-36.73511608072907,132.1390814717301,-744.7173087698894
00:00:04.98,-150.22558912075627,0.0,0,26.257496043255088,130.48468169941017,-732.670827444684
00:00:04.99,-75.32680552792951,0.0,0,89.09991579219181,129.8380447321099,-719.8306595816078
00:00:05.00,-1.4695761589768238e-12,0.0,0,151.43510960357347,151.43510960357347,-706.2171319380894
00:00:05.00,75.32680552792658,0.0,0,212.90892359374135,212.90892359374135,-691.8557873204046
00:00:05.02,150.22558912076036,0.0,0,273.1720960548986,273.1720960548986,-676.7772266426655
00:00:05.03,224.2707609493799,0.0,0,331.882242147615,331.882242147615,-661.0169224428173
00:00:05.04,297.0415815770359,0.0,0,388.7057995116961,388.7057995116961,-644.615004912278
00:00:05.04,368.1245526846746,0.0,0,443.31992374036844,443.31992374036844,-627.6160216520803
00:00:05.06,437.1157666509319,0.0,0,495.4143229476093,495.4143229476093,-610.0686725177102
00:00:05.07,503.6232016357619,0.0,0,544.693021004486,544.693021004486,-592.0255210564259
00:00:05.08,567.2689491267537,0.0,0,590.8760394257226,590.8760394257226,-573.5426841738923
00:00:05.08,627.6913612906997,0.0,0,633.7009883498979,633.7009883498979,-554.6795017907081
00:00:05.10,684.5471059286896,0.0,0,672.9245575732473,672.9245575732473,-535.4981883631463
00:00:05.11,737.5131173581765,0.0,0,708.3238991649314,708.3238991649314,-516.0634682455201
00:00:05.12,786.2884321366183,0.0,0,739.6978938076759,739.6978938076759,-496.4421969634389
00:00:05.12,830.5958991958095,0.0,0,766.8682936683916,766.8682936683916,-476.70297054731657
00:00:05.13,870.183754669524,0.0,0,789.6807353049198,789.6807353049198,-456.91572514337537
00:00:05.15,904.8270524660192,0.0,0,808.0056168535657,808.0056168535657,-437.15132917467315
00:00:05.16,934.3289424566126,0.0,0,821.7388345132115,821.7388345132115,-417.48117036704997
00:00:05.16,958.5217890173752,0.0,0,830.8023741413331,830.8023741413331,-397.9767399841065
00:00:05.17,977.2681235681932,0.0,0,835.1447546004988,835.1447546004988,-378.70921663122203
00:00:05.19,990.4614256966514,0.0,0,834.7413203363083,835.1384509401208,-359.74905199110435
00:00:05.20,998.0267284282712,0.0,0,829.5943815244308,835.0518248555006,-341.1655608424241
00:00:05.20,999.921044203816,0.0,0,819.7332009905185,834.8124713576103,-323.0265176887844
00:00:05.21,996.133609143173,0.0,0,804.9771880668119,834.3462950561916,-305.4014597863532
00:00:05.23,986.6859442078674,0.0,0,785.4205424068917,833.5818301710462,-288.3573660020837
00:00:05.24,971.631732914674,0.0,0,761.8932470957533,832.4616960604948,-271.94720017243003
00:00:05.25,951.0565162951552,0.0,0,734.0309462086966,830.9237155940605,-256.2287916352249
00:00:05.25,925.077206834459,0.0,0,701.9922477055194,828.909161408302,-241.2565878955258
00:00:05.27,893.8414241512639,0.0,0,665.9594762299658,826.3630725773905,-227.08133689356498
00:00:05.28,857.5266561936512,0.0,0,626.1376378267507,823.2345501594118,-213.74979041356005
00:00:05.29,816.3392507171853,0.0,0,582.7532557422397,819.4770299341435,-201.30443031737568
00:00:05.29,770.5132427757893,0.0,0,536.2897238364375,815.0522282763668,-189.77952165872233
00:00:05.31,720.3090248879053,0.0,0,487.00094284136713,809.9264269414449,-179.20482690090844
00:00:05.32,666.0118674342534,0.0,0,434.44834990337574,804.0595819877251,-169.6164960133415
00:00:05.33,607.9302976946054,0.0,0,379.4288174932116,797.4247262924983,-161.03766298980162
00:00:05.33,546.394346734273,0.0,0,322.2548934334984,790.0001976540765,-153.48621679568757
00:00:05.35,481.7536741017111,0.0,0,263.25137143675477,781.7697472444308,-146.97469197955564
00:00:05.36,414.375580993284,0.0,0,202.75344535239375,772.7226175273678,-141.51018983374394
00:00:05.37,344.6429231745147,0.0,0,141.10480432857997,762.8535891961367,-137.09433054995762
00:00:05.37,272.95193551732734,0.0,0,78.65567971210498,752.1629968604486,-133.72323663961288
00:00:05.38,199.70998051441373,0.0,0,15.760854783665906,740.6567133904989,-131.38754771112414
00:00:05.40,125.3332335643016,0.0,0,-47.22235136282514,728.3461030037282,-130.07246651818198
00:00:05.41,50.24431817977157,0.0,0,-109.93611434137028,715.247943357711,-129.7578360154193
00:00:05.41,-25.13009544333788,0.0,0,-172.02413785804572,701.3843170887149,-172.02413785804572
00:00:05.42,-100.36171485121062,0.0,0,-233.13367840449766,686.7824734091334,-233.13367840449766
00:00:05.44,-175.0230589752742,0.0,0,-292.9175497564741,671.4746605471709,-292.9175497564741
00:00:05.45,-248.6898871648553,0.0,0,-351.03609588776555,655.497929977875,-351.03609588776555
00:00:05.46,-320.9436098072055,0.0,0,-407.159121089447,638.8939135549481,-407.159121089447
00:00:05.46,-391.3736668372008,0.0,0,-460.9677663273959,621.7085748067865,-460.9677663273959
00:00:05.48,-459.5798606214884,0.0,0,-512.1563211765927,603.9919358070462,-512.1563211765927
00:00:05.49,-525.1746299612983,0.0,0,-560.4339610367149,585.7977811688623,-560.4339610367149
00:00:05.50,-587.7852522924718,0.0,0,-605.5263997581029,567.1833408418785,-605.5263997581029
00:00:05.50,-647.0559615694394,0.0,0,-647.1774482878316,548.2089535117268,-647.1774482878316
00:00:05.52,-702.6499697988515,0.0,0,-685.1504704795817,528.9377125118626,-685.1504704795817
00:00:05.53,-754.2513807361029,0.0,0,-719.2297277953812,509.43509625706196,-719.2297277953812
00:00:05.54,-801.566984870877,0.0,0,-749.2216052585593,489.76858529588037,-749.2216052585593
00:00:05.54,-844.327925502013,0.0,0,-774.9557116920372,470.00726815544414,-774.9557116920372
00:00:05.56,-882.2912264349526,0.0,0,-796.2858479903942,450.2214382156654,-796.2858479903942
00:00:05.57,-915.241172620918,0.0,0,-813.090837923976,430.4821839009835,-813.090837923976
00:00:05.58,-942.9905358928632,0.0,0,-825.2752167544602,410.8609745157422,-825.2752167544602
00:00:05.58,-965.3816388332737,0.0,0,-832.7697737491897,391.42924407410266,-832.7697737491897
00:00:05.60,-982.287250728689,0.0,0,-835.5319455117792,372.2579754868232,-835.5319455117792
00:00:05.61,-993.6113105200088,0.0,0,-833.5460578941695,353.41728746524524,-835.5009160177541
00:00:05.62,-999.2894726405892,0.0,0,-826.8234151156906,334.9760264874181,-835.3653300661593
00:00:05.62,-999.2894726405896,0.0,0,-815.4022355828943,317.00136614256945,-835.0534067148583
00:00:05.63,-993.6113105200088,0.0,0,-798.6376645098911,299.5695062886248,-834.4844107429057
00:00:05.65,-982.2872507286888,0.0,0,-777.366204411646,282.742385808933,-833.5919387689797
00:00:05.66,-965.3816388332737,0.0,0,-752.4129047016958,266.56808439470444,-832.3235163616785
00:00:05.67,-942.9905358928656,0.0,0,-723.1730192300823,251.10337965056715,-830.6180398439973
00:00:05.67,-915.2411726209178,0.0,0,-689.8132561361294,236.40155721640002,-828.4179650985618
00:00:05.69,-882.2912264349525,0.0,0,-652.5237054617719,222.51209998705357,-825.6696172917369
00:00:05.70,-844.3279255020168,0.0,0,-611.5167604252118,209.48039904311193,-822.3234789031975
00:00:05.71,-801.5669848708769,0.0,0,-567.0259118933192,197.3474879347302,-818.3344544186682
00:00:05.71,-754.2513807361073,0.0,0,-520.0141931714041,186.13871166744684,-813.6732003366797
00:00:05.73,-702.6499697988462,0.0,0,-470.0079428066923,175.8864201912884,-808.3034306877736
00:00:05.74,-647.0559615694448,0.0,0,-416.5875544433699,166.62901433762187,-802.1828701214548
00:00:05.75,-587.7852522924716,0.0,0,-360.8035166049711,158.38788104164385,-795.2863177227598
00:00:05.75,-525.1746299612981,0.0,0,-302.9726311167439,151.17912303916904,-787.5939163695408
00:00:05.77,-459.5798606214882,0.0,0,-243.42333911085746,145.01345956807486,-779.0912510998738
00:00:05.78,-391.3736668372006,0.0,0,-182.49385432286212,139.89615778852897,-769.769416775233
00:00:05.79,-320.94360980721206,0.0,0,-120.53024088003602,135.82699530933263,-759.6250546518705
00:00:05.79,-248.6898871648551,0.0,0,-57.88444650293212,132.80025403101598,-748.6603576495434
00:00:05.81,-175.02305897527395,0.0,0,5.08769770517258,130.80474533842468,-736.883044284626
00:00:05.82,-100.36171485121744,0.0,0,68.02849951632051,129.8238664974543,-724.3063014127362
00:00:05.83,-25.130095443337627,0.0,0,130.58043839345098,130.58043839345098,-710.9486961032645
00:00:05.83,50.24431817976472,0.0,0,192.38819731355682,192.38819731355682,-696.8340571436266
00:00:05.85,125.3332335643089,0.0,0,253.10068205402072,253.10068205402072,-681.9913268436634
00:00:05.86,199.709980514407,0.0,0,312.3730164689525,312.3730164689525,-666.4543839794038
00:00:05.87,272.9519355173276,0.0,0,369.8685024187295,369.8685024187295,-650.261838879433
00:00:05.87,344.6429231745149,0.0,0,425.26053321674397,425.26053321674397,-633.4568018154301
00:00:05.88,414.37558099327777,0.0,0,478.2344497214742,478.2344497214742,-616.086626010166
00:00:05.90,481.7536741017175,0.0,0,528.4893285278217,528.4893285278217,-598.2026267205099
00:00:05.91,546.3943467342673,0.0,0,575.7396920974995,575.7396920974995,-579.8597779889785
00:00:05.92,607.9302976946057,0.0,0,619.7171311117414,619.7171311117414,-561.1163887842798
00:00:05.92,666.0118674342483,0.0,0,660.1718298283549,660.1718298283549,-542.0337603684574
00:00:05.94,720.3090248879055,0.0,0,696.8739857762923,696.8739857762923,-522.6758268349456
00:00:05.95,770.5132427757894,0.0,0,729.6151157212201,729.6151157212201,-503.1087808575055
00:00:05.96,816.3392507171815,0.0,0,758.2092404818463,758.2092404818463,-483.4006867740781
00:00:05.96,857.5266561936513,0.0,0,782.4939418650617,782.4939418650617,-463.62108320159155
00:00:05.98,893.841424151264,0.0,0,802.3312857146419,802.3312857146419,-443.8405774372754
00:00:05.99,925.0772068344592,0.0,0,817.6086058289565,817.6086058289565,-424.1304339487405
00:00:06.00,951.056516295153,0.0,0,828.2391442937019,828.2391442937019,-404.56215928870233
00:00:06.00,971.6317329146724,0.0,0,834.1625445915408,834.1625445915408,-385.20708579057356
00:00:06.02,986.6859442078686,0.0,0,835.3451946870322,835.3451946870322,-366.135956408111
00:00:06.03,996.1336091431724,0.0,0,831.7804181377335,835.2894950534494,-347.41851305583214
00:00:06.04,999.921044203816,0.0,0,823.4885121458422,835.1051046955181,-329.12309078705596
00:00:06.04,998.0267284282718,0.0,0,810.5166323344729,834.7209098148768,-311.31622011328204
00:00:06.06,990.4614256966514,0.0,0,792.465095520998,834.0606627165349,-294.0696370564964
00:00:06.07,977.2681235681932,0.0,0,770.1677098636382,833.0623353282084,-277.4409285108693
00:00:06.08,958.5217890173768,0.0,0,743.7368245636297,831.6666242225118,-261.48502611908026
00:00:06.08,934.3289424566126,0.0,0,713.0738479271649,829.8136120928971,-246.2575437121077
00:00:06.10,904.8270524660192,0.0,0,678.3533146210848,827.4470449449,-231.81049905065157
00:00:06.11,870.1837546695239,0.0,0,639.7728000827731,824.5146348689292,-218.1920100016918
00:00:06.12,830.5958991958133,0.0,0,597.5517986109032,820.9683405523975,-205.44601299212002
00:00:06.12,786.2884321366225,0.0,0,551.930476871152,816.7646239323781,-193.61200533800638
00:00:06.14,737.5131173581715,0.0,0,503.6417392841745,811.8720788597499,-182.7174155782848
00:00:06.15,684.5471059286893,0.0,0,452.2290051941471,806.2526558337248,-172.79637775371555
00:00:06.16,627.6913612906994,0.0,0,397.99901639212965,799.8736927174499,-163.8776997201867
00:00:06.16,567.2689491267593,0.0,0,341.5089383675852,792.7117434307332,-155.98103350006528
00:00:06.17,503.6232016357617,0.0,0,283.0796879833712,784.7487425643682,-149.1207097268866
00:00:06.19,437.1157666509316,0.0,0,223.0432044179709,775.9720935308308,-143.3056485683732
00:00:06.20,368.12455268468096,0.0,0,161.74056284329015,766.374725863838,-138.53930151506594
00:00:06.20,297.0415815770357,0.0,0,99.52003619880156,755.9551213378218,-134.81962436328678
00:00:06.21,224.27076094938656,0.0,0,36.735116074969895,744.7173087555897,-132.13908154393903
00:00:06.23,150.22558912075309,0.0,0,-26.257496048726985,732.6708274305222,-130.48468177057634
00:00:06.24,75.32680552793342,0.0,0,-89.09991579738875,719.830659567586,-129.8380448022453
00:00:06.25,5.3896838775215296e-12,0.0,0,-151.4351096085113,706.2171319242095,-151.4351096085113
00:00:06.25,-75.32680552792975,0.0,0,-212.90892359843144,691.8557873066683,-212.90892359843144
00:00:06.27,-150.2255891207565,0.0,0,-273.1720960593541,676.7772266290742,-273.1720960593541
00:00:06.28,-224.27076094938295,0.0,0,-331.8822421518478,661.0169224293724,-331.8822421518478
00:00:06.29,-297.0415815770322,0.0,0,-388.70579951571636,644.6150048989804,-388.70579951571636
00:00:06.29,-368.1245526846776,0.0,0,-443.3199237441885,627.6160216389309,-443.3199237441885
00:00:06.31,-437.1157666509347,0.0,0,-495.4143229512375,610.0686725047095,-495.4143229512375
00:00:06.32,-503.6232016357585,0.0,0,-544.6930210079337,592.0255210435745,-544.6930210079337
00:00:06.33,-567.2689491267563,0.0,0,-590.876039428998,573.5426841611906,-590.876039428998
00:00:06.33,-627.6913612906966,0.0,0,-633.7009883530095,554.6795017781561,-633.7009883530095
00:00:06.35,-684.547105928692,0.0,0,-672.9245575762043,535.4981883507443,-672.9245575762043
00:00:06.36,-737.5131173581739,0.0,0,-708.3238991677399,516.0634682332679,-708.3238991677399
00:00:06.37,-786.2884321366203,0.0,0,-739.6978938103448,496.4421969513365,-739.6978938103448
00:00:06.37,-830.5958991958113,0.0,0,-766.8682936709263,476.70297053536365,-766.8682936709263
00:00:06.39,-870.1837546695257,0.0,0,-789.6807353073284,456.9157251315716,-789.6807353073284
00:00:06.40,-904.8270524660206,0.0,0,-808.0056168558536,437.1513291630181,-808.0056168558536
00:00:06.41,-934.3289424566112,0.0,0,-821.7388345153848,417.48117035554304,-821.7388345153848
00:00:06.41,-958.521789017376,0.0,0,-830.8023741433982,397.9767399727471,-830.8023741433982
00:00:06.42,-977.2681235681924,0.0,0,-835.14475460246,378.7092166200095,-835.14475460246
00:00:06.44,-990.461425696651,0.0,0,-834.7413203381719,359.7490519800379,-835.1384509420805
00:00:06.45,-998.0267284282716,0.0,0,-829.5943815262008,341.16556083150294,-835.0518248574573
00:00:06.46,-999.9210442038162,0.0,0,-819.7332009922003,323.02651767800756,-834.8124713595627
00:00:06.46,-996.1336091431726,0.0,0,-804.9771880684094,305.4014597757198,-834.3462950581384
00:00:06.48,-986.685944207868,0.0,0,-785.420542408409,288.35736599159276,-833.5818301729863
00:00:06.49,-971.6317329146732,0.0,0,-761.8932470971944,271.94720016208043,-832.4616960624271
00:00:06.50,-951.0565162951542,0.0,0,-734.0309462100655,256.2287916250157,-830.9237155959839
00:00:06.50,-925.0772068344606,0.0,0,-701.99224770682,241.25658788545573,-828.9091614102158
00:00:06.52,-893.8414241512625,0.0,0,-665.9594762312012,227.08133688363296,-826.3630725792937
00:00:06.53,-857.5266561936533,0.0,0,-626.1376378279247,213.74979040376488,-823.2345501613036
00:00:06.54,-816.3392507171836,0.0,0,-582.7532557433549,201.30443030771613,-819.4770299360231
00:00:06.54,-770.5132427757918,0.0,0,-536.2897238374973,189.77952164919716,-815.0522282782337
00:00:06.56,-720.3090248879081,0.0,0,-487.0009428423737,179.20482689151638,-809.9264269432983
00:00:06.57,-666.011867434251,0.0,0,-434.4483499043325,169.61649600408123,-804.0595819895645
00:00:06.58,-607.9302976946085,0.0,0,-379.4288174941208,161.03766298067183,-797.4247262943232
00:00:06.58,-546.3943467342704,0.0,0,-322.254893434362,153.48621678668692,-790.0001976558864
00:00:06.60,-481.75367410171447,0.0,0,-263.2513714375756,146.9746919706828,-781.7697472462253
00:00:06.61,-414.3755809932811,0.0,0,-202.75344535317308,141.51018982499755,-772.7226175291463
00:00:06.62,-344.6429231745184,0.0,0,-141.1048043293209,137.09433054133632,-762.853589197899
00:00:06.62,-272.95193551733104,0.0,0,-78.65567971280831,133.7232366311153,-752.1629968621945
00:00:06.64,-199.70998051440364,0.0,0,-15.760854784334754,131.3875477027489,-740.656713392228
00:00:06.65,-125.33323356430547,0.0,0,47.222351362189556,130.07246650992764,-728.3461030054402
00:00:06.66,-50.24431817976839,0.0,0,109.93611434076814,129.7578360072845,-715.2479433594057
00:00:06.67,25.13009544333396,0.0,0,172.02413785747297,172.02413785747297,-701.384317090392
00:00:06.67,100.3617148512138,0.0,0,233.13367840395435,233.13367840395435,-686.7824734107928
00:00:06.69,175.02305897527734,0.0,0,292.9175497559571,292.9175497559571,-671.4746605488124
00:00:06.70,248.68988716485148,0.0,0,351.0360958872753,351.0360958872753,-655.4979299794985
00:00:06.71,320.94360980720853,0.0,0,407.15912108898135,407.15912108898135,-638.8939135565535
00:00:06.71,391.3736668371972,0.0,0,460.96776632695355,460.96776632695355,-621.7085748083737
00:00:06.73,459.57986062149126,0.0,0,512.1563211761733,512.1563211761733,-603.9919358086152
00:00:06.74,525.174629961295,0.0,0,560.4339610363147,560.4339610363147,-585.7977811704131
00:00:06.75,587.7852522924744,0.0,0,605.5263997577235,605.5263997577235,-567.183340843411
00:00:06.75,647.0559615694419,0.0,0,647.1774482874703,647.1774482874703,-548.208953513241
00:00:06.77,702.6499697988486,0.0,0,685.1504704792393,685.1504704792393,-528.9377125133585
00:00:06.78,754.2513807361049,0.0,0,719.2297277950557,719.2297277950557,-509.43509625853955
00:00:06.79,801.5669848708748,0.0,0,749.2216052582494,749.2216052582494,-489.7685852973397
00:00:06.79,844.3279255020148,0.0,0,774.9557116917437,774.9557116917437,-470.0072681568853
00:00:06.81,882.2912264349542,0.0,0,796.2858479901148,796.2858479901148,-450.2214382170884
00:00:06.82,915.2411726209164,0.0,0,813.0908379237111,813.0908379237111,-430.48218390238844
00:00:06.83,942.9905358928644,0.0,0,825.2752167542084,825.2752167542084,-410.86097451712914
00:00:06.83,965.3816388332724,0.0,0,832.7697737489506,832.7697737489506,-391.4292440754716
00:00:06.85,982.2872507286896,0.0,0,835.5319455115518,835.5319455115518,-372.2579754881744
00:00:06.86,993.6113105200084,0.0,0,833.546057893953,835.5009160175268,-353.41728746657867
00:00:06.87,999.2894726405892,0.0,0,826.8234151154854,835.3653300659324,-334.9760264887339
00:00:06.87,999.2894726405892,0.0,0,815.4022355826991,835.0534067146319,-317.00136614386776
00:00:06.89,993.6113105200084,0.0,0,798.6376645097058,834.48441074268,-299.5695062899057
00:00:06.90,982.2872507286884,0.0,0,777.3662044114698,833.5919387687549,-282.7423858101967
00:00:06.91,965.3816388332746,0.0,0,752.412904701528,832.3235163614545,-266.568084395951
00:00:06.92,942.9905358928644,0.0,0,723.173019229923,830.6180398437743,-251.10337965179673
00:00:06.92,915.2411726209194,0.0,0,689.8132561359781,828.41796509834,-236.40155721761275
00:00:06.94,882.2912264349544,0.0,0,652.5237054616282,825.6696172915164,-222.51209998824962
00:00:06.95,844.3279255020151,0.0,0,611.5167604250755,822.3234789029782,-209.4803990442914
00:00:06.96,801.5669848708793,0.0,0,567.0259118931899,818.3344544184503,-197.34748793589327
00:00:06.96,754.2513807361051,0.0,0,520.0141931712812,813.6732003364632,-186.13871166859366
00:00:06.98,702.649969798849,0.0,0,470.00794280657607,808.3034306875587,-175.88642019241914
00:00:06.99,647.0559615694424,0.0,0,416.5875544432594,802.1828701212415,-166.62901433873665
00:00:07.00,587.7852522924748,0.0,0,360.80351660486656,795.2863177225481,-158.38788104274286
00:00:07.00,525.1746299613014,0.0,0,302.97263111664415,787.5939163693308,-151.17912304025245
00:00:07.02,459.57986062148535,0.0,0,243.42333911076327,779.0912510996657,-145.01345956914284
00:00:07.03,391.3736668372042,0.0,0,182.49385432277285,769.7694167750267,-139.89615778958165
00:00:07.04,320.94360980720904,0.0,0,120.53024087995064,759.6250546516661,-135.8269953103702
00:00:07.04,248.68988716485885,0.0,0,57.88444650285169,748.6603576493409,-132.8002540320386
00:00:07.06,175.02305897527782,0.0,0,-5.087697705249674,736.8830442844254,-130.80474533943251
00:00:07.07,100.36171485121427,0.0,0,-68.028499516393,724.3063014125377,-129.82386649844753
00:00:07.08,25.13009544334155,0.0,0,-130.58043839351978,710.948696103068,-130.58043839351978
00:00:07.08,-50.2443181797679,0.0,0,-192.3881973136223,696.8340571434321,-192.3881973136223
00:00:07.10,-125.333233564305,0.0,0,-253.10068205408282,681.9913268434709,-253.10068205408282
00:00:07.11,-199.70998051441012,0.0,0,-312.3730164690123,666.4543839792134,-312.3730164690123
00:00:07.12,-272.95193551732376,0.0,0,-369.86850241878545,650.2618388792447,-369.86850241878545
00:00:07.12,-344.6429231745112,0.0,0,-425.26053321679797,633.456801815244,-425.26053321679797
00:00:07.14,-414.3755809932872,0.0,0,-478.2344497215247,616.0866260099821,-478.2344497215247
00:00:07.15,-481.75367410171407,0.0,0,-528.4893285278697,598.2026267203281,-528.4893285278697
00:00:07.16,-546.3943467342699,0.0,0,-575.7396920975468,579.8597779887988,-575.7396920975468
00:00:07.16,-607.9302976946025,0.0,0,-619.7171311117854,561.1163887841021,-619.7171311117854
00:00:07.17,-666.0118674342507,0.0,0,-660.1718298283976,542.0337603682818,-660.1718298283976
00:00:07.19,-720.3090248879078,0.0,0,-696.8739857763319,522.6758268347722,-696.8739857763319
00:00:07.20,-770.513242775787,0.0,0,-729.6151157212585,503.10878085733424,-729.6151157212585
00:00:07.20,-816.3392507171833,0.0,0,-758.2092404818827,483.400686773909,-758.2092404818827
00:00:07.21,-857.5266561936492,0.0,0,-782.4939418650964,463.62108320142454,-782.4939418650964
00:00:07.23,-893.8414241512654,0.0,0,-802.3312857146755,443.8405774371105,-802.3312857146755
00:00:07.24,-925.0772068344576,0.0,0,-817.6086058289869,424.1304339485777,-817.6086058289869
00:00:07.25,-951.0565162951518,0.0,0,-828.2391442937316,404.56215928854164,-828.2391442937316
00:00:07.25,-971.6317329146732,0.0,0,-834.1625445915685,385.2070857904149,-834.1625445915685
00:00:07.27,-986.685944207868,0.0,0,-835.3451946870586,366.1359564079544,-835.3451946870586
00:00:07.28,-996.1336091431726,0.0,0,-831.7804181377585,347.41851305567764,-835.2894950534758
00:00:07.29,-999.921044203816,0.0,0,-823.4885121458656,329.1230907869035,-835.1051046955444
00:00:07.29,-998.0267284282716,0.0,0,-810.5166323344955,311.31622011313164,-834.7209098149029
00:00:07.31,-990.461425696651,0.0,0,-792.4650955210195,294.06963705634803,-834.060662716561
00:00:07.32,-977.268123568194,0.0,0,-770.167709863659,277.4409285107229,-833.0623353282343
00:00:07.33,-958.521789017376,0.0,0,-743.7368245636491,261.4850261189359,-831.6666242225377
00:00:07.33,-934.328942456614,0.0,0,-713.0738479271836,246.25754371196527,-829.8136120929229
00:00:07.35,-904.8270524660176,0.0,0,-678.3533146211024,231.81049905051108,-827.4470449449257
00:00:07.36,-870.1837546695259,0.0,0,-639.7728000827898,218.19201000155326,-824.5146348689548
00:00:07.37,-830.5958991958115,0.0,0,-597.5517986109189,205.44601299198337,-820.968340552423
00:00:07.37,-786.2884321366206,0.0,0,-551.9304768711672,193.61200533787164,-816.7646239324034
00:00:07.39,-737.5131173581741,0.0,0,-503.6417392841886,182.71741557815196,-811.8720788597751
00:00:07.40,-684.5471059286872,0.0,0,-452.2290051941602,172.79637775358458,-806.2526558337498
00:00:07.41,-627.6913612907025,0.0,0,-397.9990163921426,163.8776997200576,-799.8736927174747
00:00:07.41,-567.2689491267566,0.0,0,-341.5089383675971,155.98103349993798,-792.7117434307578
00:00:07.42,-503.623201635765,0.0,0,-283.07968798338305,149.12070972676108,-784.7487425643926
00:00:07.44,-437.1157666509351,0.0,0,-223.0432044179817,143.30564856824947,-775.972093530855
00:00:07.45,-368.124552684678,0.0,0,-161.7405628433011,138.539301514944,-766.374725863862
00:00:07.46,-297.0415815770395,0.0,0,-99.52003619881219,134.81962436316655,-755.9551213378455
00:00:07.46,-224.2707609493835,0.0,0,-36.735116074979885,132.1390815438205,-744.7173087556132
00:00:07.48,-150.22558912075698,0.0,0,26.257496048716696,130.4846817704595,-732.6708274305455
00:00:07.49,-75.32680552793023,0.0,0,89.09991579737965,129.83804480213013,-719.8306595676091
00:00:07.50,-2.204364238465236e-12,0.0,0,151.435109608502,151.435109608502,-706.2171319242324
00:00:07.50,75.32680552792584,0.0,0,212.90892359842337,212.90892359842337,-691.8557873066909
00:00:07.52,150.22558912075965,0.0,0,273.1720960593465,273.1720960593465,-676.7772266290966
00:00:07.53,224.2707609493792,0.0,0,331.8822421518405,331.8822421518405,-661.0169224293945
00:00:07.54,297.04158157703523,0.0,0,388.7057995157103,388.7057995157103,-644.6150048990023
00:00:07.54,368.1245526846739,0.0,0,443.31992374418195,443.31992374418195,-627.6160216389526
00:00:07.56,437.1157666509312,0.0,0,495.4143229512322,495.4143229512322,-610.0686725047309
00:00:07.57,503.6232016357612,0.0,0,544.6930210079277,544.6930210079277,-592.0255210435956
00:00:07.58,567.268949126753,0.0,0,590.8760394289923,590.8760394289923,-573.5426841612115
00:00:07.58,627.691361290699,0.0,0,633.700988353004,633.700988353004,-554.6795017781768
00:00:07.60,684.547105928689,0.0,0,672.9245575761981,672.9245575761981,-535.4981883507647
00:00:07.61,737.5131173581759,0.0,0,708.3238991677349,708.3238991677349,-516.0634682332882
00:00:07.62,786.2884321366178,0.0,0,739.6978938103393,739.6978938103393,-496.4421969513565
00:00:07.62,830.5958991958091,0.0,0,766.868293670922,766.868293670922,-476.7029705353834
00:00:07.64,870.1837546695273,0.0,0,789.6807353073236,789.6807353073236,-456.9157251315911
00:00:07.65,904.8270524660188,0.0,0,808.0056168558492,808.0056168558492,-437.15132916303736
00:00:07.66,934.3289424566124,0.0,0,821.7388345153811,821.7388345153811,-417.4811703555621
00:00:07.67,958.5217890173748,0.0,0,830.8023741433943,830.8023741433943,-397.97673997276587
00:00:07.67,977.2681235681932,0.0,0,835.144754602457,835.144754602457,-378.70921662002803
00:00:07.69,990.4614256966514,0.0,0,834.7413203381685,835.1384509420775,-359.7490519800562
00:00:07.70,998.0267284282712,0.0,0,829.594381526198,835.0518248574543,-341.16556083152096
00:00:07.71,999.921044203816,0.0,0,819.7332009921976,834.8124713595597,-323.02651767802536
00:00:07.71,996.133609143173,0.0,0,804.977188068407,834.3462950581354,-305.40145977573735
00:00:07.73,986.6859442078676,0.0,0,785.4205424084072,833.5818301729834,-288.3573659916101
00:00:07.74,971.6317329146742,0.0,0,761.8932470971926,832.4616960624242,-271.94720016209754
00:00:07.75,951.0565162951532,0.0,0,734.0309462100639,830.923715595981,-256.2287916250325
00:00:07.75,925.0772068344594,0.0,0,701.9922477068185,828.9091614102128,-241.25658788547233
00:00:07.77,893.8414241512642,0.0,0,665.9594762311999,826.3630725792908,-227.08133688364933
00:00:07.78,857.5266561936515,0.0,0,626.1376378279232,823.2345501613007,-213.74979040378102
00:00:07.79,816.3392507171858,0.0,0,582.7532557433535,819.4770299360202,-201.30443030773205
00:00:07.79,770.5132427757898,0.0,0,536.2897238374956,815.0522282782308,-189.77952164921288
00:00:07.81,720.3090248879058,0.0,0,487.00094284237235,809.9264269432955,-179.20482689153187
00:00:07.82,666.011867434254,0.0,0,434.4483499043308,804.0595819895617,-169.61649600409652
00:00:07.83,607.9302976946059,0.0,0,379.4288174941191,797.4247262943204,-161.0376629806869
00:00:07.83,546.3943467342737,0.0,0,322.25489343436055,790.0001976558835,-153.48621678670176
00:00:07.85,481.7536741017117,0.0,0,263.25137143757405,781.7697472462224,-146.97469197069745
00:00:07.86,414.3755809932847,0.0,0,202.75344535317205,772.7226175291436,-141.510189825012
00:00:07.87,344.6429231745153,0.0,0,141.10480432931936,762.8535891978963,-137.09433054135056
00:00:07.87,272.951935517328,0.0,0,78.65567971280754,752.1629968621918,-133.72323663112934
00:00:07.89,199.70998051440748,0.0,0,15.760854784333333,740.6567133922252,-131.38754770276273
00:00:07.90,125.33323356430232,0.0,0,-47.22235136219108,728.3461030054375,-130.0724665099413
00:00:07.91,50.24431817977231,0.0,0,-109.9361143407688,715.247943359403,-129.75783600729798
00:00:07.92,-25.13009544333714,0.0,0,-172.02413785747433,701.3843170903893,-172.02413785747433
00:00:07.93,-100.36171485121696,0.0,0,-233.13367840395483,686.7824734107902,-233.13367840395483
00:00:07.94,-175.02305897527347,0.0,0,-292.9175497559584,671.4746605488098,-292.9175497559584
00:00:07.95,-248.6898871648546,0.0,0,-351.0360958872766,655.4979299794959,-351.0360958872766
00:00:07.96,-320.9436098072049,0.0,0,-407.15912108898254,638.893913556551,-407.15912108898254
00:00:07.96,-391.3736668372002,0.0,0,-460.9677663269547,621.7085748083712,-460.9677663269547
00:00:07.98,-459.5798606214878,0.0,0,-512.1563211761735,603.9919358086127,-512.1563211761735
00:00:07.99,-525.1746299612977,0.0,0,-560.4339610363157,585.7977811704106,-560.4339610363157
00:00:08.00,-587.7852522924712,0.0,0,-605.5263997577237,567.1833408434086,-605.5263997577237
00:00:08.00,-647.0559615694389,0.0,0,-647.1774482874713,548.2089535132386,-647.1774482874713
00:00:08.01,-702.6499697988459,0.0,0,-685.1504704792394,528.9377125133561,-685.1504704792394
00:00:08.02,-754.2513807360976,0.0,0,-719.229727795055,509.4350962585372,-719.229727795055
00:00:08.04,-801.566984870881,0.0,0,-749.2216052582489,489.76858529733744,-749.2216052582489
00:00:08.05,-844.3279255020166,0.0,0,-774.9557116917418,470.0072681568831,-774.9557116917418
00:00:08.06,-882.2912264349523,0.0,0,-796.2858479901142,450.22143821708625,-796.2858479901142
00:00:08.07,-915.2411726209176,0.0,0,-813.0908379237104,430.4821839023863,-813.0908379237104
00:00:08.08,-942.990535892863,0.0,0,-825.2752167542079,410.860974517127,-825.2752167542079
00:00:08.08,-965.3816388332732,0.0,0,-832.76977374895,391.4292440754695,-832.76977374895
00:00:08.09,-982.2872507286874,0.0,0,-835.5319455115514,372.2579754881723,-835.5319455115514
00:00:08.10,-993.611310520008,0.0,0,-833.546057893953,353.41728746657657,-835.5009160175264
00:00:08.12,-999.2894726405896,0.0,0,-826.8234151154855,334.97602648873186,-835.365330065932
00:00:08.13,-999.2894726405892,0.0,0,-815.4022355827001,317.00136614386577,-835.0534067146315
00:00:08.14,-993.611310520008,0.0,0,-798.6376645097059,299.5695062899037,-834.4844107426795
00:00:08.15,-982.287250728689,0.0,0,-777.3662044114695,282.7423858101947,-833.5919387687544
00:00:08.16,-965.3816388332737,0.0,0,-752.412904701528,266.56808439594903,-832.323516361454
00:00:08.16,-942.9905358928658,0.0,0,-723.173019229923,251.10337965179477,-830.6180398437739
00:00:08.17,-915.2411726209182,0.0,0,-689.8132561359782,236.40155721761082,-828.4179650983396
00:00:08.18,-882.2912264349562,0.0,0,-652.5237054616283,222.5120999882477,-825.6696172915159
00:00:08.19,-844.327925502021,0.0,0,-611.5167604250757,209.48039904428953,-822.3234789029777
00:00:08.21,-801.5669848708732,0.0,0,-567.0259118931904,197.3474879358914,-818.3344544184498
00:00:08.22,-754.2513807361032,0.0,0,-520.0141931712824,186.1387116685918,-813.6732003364629
00:00:08.23,-702.6499697988468,0.0,0,-470.00794280657635,175.88642019241732,-808.3034306875584
00:00:08.24,-647.0559615694453,0.0,0,-416.5875544432593,166.62901433873486,-802.1828701212412
00:00:08.25,-587.785252292478,0.0,0,-360.803516604866,158.3878810427411,-795.2863177225478
00:00:08.25,-525.1746299612987,0.0,0,-302.9726311166442,151.17912304025072,-787.5939163693305
00:00:08.26,-459.5798606214952,0.0,0,-243.42333911076355,145.0134595691411,-779.0912510996653
00:00:08.27,-391.3736668372078,0.0,0,-182.4938543227729,139.89615778957995,-769.7694167750263
00:00:08.29,-320.943609807206,0.0,0,-120.5302408799516,135.82699531036852,-759.6250546516658
00:00:08.30,-248.68988716484887,0.0,0,-57.884446502852384,132.80025403203695,-748.6603576493405
00:00:08.31,-175.0230589752747,0.0,0,5.087697705248672,130.80474533943087,-736.8830442844251
00:00:08.32,-100.36171485121815,0.0,0,68.02849951639307,129.8238664984459,-724.3063014125373
00:00:08.33,-25.13009544333837,0.0,0,130.5804383935199,130.5804383935199,-710.9486961030677
00:00:08.33,50.24431817976399,0.0,0,192.38819731362236,192.38819731362236,-696.8340571434319
00:00:08.34,125.3332335643011,0.0,0,253.10068205408373,253.10068205408373,-681.9913268434707
00:00:08.35,199.7099805143993,0.0,0,312.3730164690123,312.3730164690123,-666.4543839792132
00:00:08.37,272.95193551732683,0.0,0,369.8685024187862,369.8685024187862,-650.2618388792445
00:00:08.38,344.6429231745209,0.0,0,425.26053321679774,425.26053321679774,-633.4568018152438
00:00:08.39,414.3755809932836,0.0,0,478.23444972152447,478.23444972152447,-616.0866260099818
00:00:08.40,481.7536741017168,0.0,0,528.4893285278695,528.4893285278695,-598.2026267203279
00:00:08.41,546.3943467342667,0.0,0,575.7396920975458,575.7396920975458,-579.8597779887986
00:00:08.41,607.9302976946051,0.0,0,619.7171311117854,619.7171311117854,-561.1163887841019
00:00:08.42,666.0118674342477,0.0,0,660.1718298283968,660.1718298283968,-542.0337603682816
00:00:08.43,720.3090248879049,0.0,0,696.873985776332,696.873985776332,-522.675826834772
00:00:08.44,770.5132427757845,0.0,0,729.6151157212587,729.6151157212587,-503.108780857334
00:00:08.46,816.3392507171851,0.0,0,758.2092404818839,758.2092404818839,-483.4006867739087
00:00:08.47,857.5266561936545,0.0,0,782.4939418650968,782.4939418650968,-463.62108320142426
00:00:08.48,893.8414241512637,0.0,0,802.3312857146749,802.3312857146749,-443.8405774371102
00:00:08.49,925.0772068344562,0.0,0,817.6086058289874,817.6086058289874,-424.13043394857743
00:00:08.50,951.0565162951508,0.0,0,828.2391442937313,828.2391442937313,-404.56215928854135
00:00:08.50,971.631732914674,0.0,0,834.1625445915683,834.1625445915683,-385.2070857904146
00:00:08.51,986.6859442078672,0.0,0,835.3451946870581,835.3451946870581,-366.1359564079541
00:00:08.52,996.1336091431716,0.0,0,831.7804181377585,835.2894950534753,-347.41851305567735
00:00:08.54,999.921044203816,0.0,0,823.4885121458658,835.1051046955439,-329.1230907869032
00:00:08.55,998.026728428271,0.0,0,810.5166323344959,834.7209098149025,-311.31622011313135
00:00:08.56,990.4614256966504,0.0,0,792.4650955210193,834.0606627165606,-294.06963705634774
00:00:08.57,977.2681235681932,0.0,0,770.1677098636579,833.062335328234,-277.44092851072264
00:00:08.58,958.5217890173772,0.0,0,743.7368245636484,831.6666242225373,-261.4850261189356
00:00:08.58,934.3289424566152,0.0,0,713.0738479271831,829.8136120929224,-246.25754371196498
00:00:08.59,904.8270524660194,0.0,0,678.3533146211023,827.4470449449252,-231.8104990505108
00:00:08.60,870.1837546695278,0.0,0,639.7728000827898,824.5146348689543,-218.19201000155297
00:00:08.62,830.5958991958098,0.0,0,597.5517986109193,820.9683405524225,-205.44601299198308
00:00:08.63,786.2884321366186,0.0,0,551.9304768711678,816.764623932403,-193.61200533787135
00:00:08.64,737.5131173581768,0.0,0,503.64173928418916,811.8720788597747,-182.71741557815164
00:00:08.65,684.5471059286848,0.0,0,452.22900519416055,806.2526558337495,-172.79637775358427
00:00:08.66,627.6913612907,0.0,0,397.9990163921433,799.8736927174743,-163.87769972005728
00:00:08.67,567.2689491267598,0.0,0,341.5089383675976,792.7117434307576,-155.98103349993767
00:00:08.67,503.62320163576845,0.0,0,283.07968798338305,784.7487425643924,-149.1207097267608
00:00:08.68,437.1157666509322,0.0,0,223.04320441798194,775.9720935308547,-143.30564856824918
00:00:08.70,368.1245526846684,0.0,0,161.74056284330143,766.3747258638617,-138.5393015149437
00:00:08.71,297.04158157702966,0.0,0,99.52003619881194,755.9551213378453,-134.81962436316627
00:00:08.72,224.2707609493804,0.0,0,36.735116074978734,744.717308755613,-132.13908154382025
00:00:08.73,150.22558912076087,0.0,0,-26.257496048718814,732.6708274305453,-130.4846817704593
00:00:08.74,75.32680552792706,0.0,0,-89.09991579738241,719.8306595676089,-129.83804480212999
00:00:08.75,-9.809554005910592e-13,0.0,0,-151.43510960850375,706.2171319242321,-151.43510960850375
00:00:08.75,-75.32680552792901,0.0,0,-212.90892359842516,691.8557873066907,-212.90892359842516
00:00:08.76,-150.22558912074874,0.0,0,-273.172096059349,676.7772266290963,-273.172096059349
00:00:08.77,-224.2707609493684,0.0,0,-331.8822421518437,661.0169224293941,-331.8822421518437
00:00:08.79,-297.04158157704506,0.0,0,-388.7057995157116,644.6150048990017,-388.7057995157116
00:00:08.80,-368.12455268468347,0.0,0,-443.3199237441806,627.616021638952,-443.3199237441806
00:00:08.81,-437.11576665093406,0.0,0,-495.41432295123093,610.0686725047304,-495.41432295123093
00:00:08.82,-503.62320163575794,0.0,0,-544.6930210079273,592.0255210435952,-544.6930210079273
00:00:08.83,-567.2689491267497,0.0,0,-590.8760394289928,573.542684161211,-590.8760394289928
00:00:08.83,-627.6913612907016,0.0,0,-633.7009883530038,554.6795017781764,-633.7009883530038
00:00:08.84,-684.5471059286863,0.0,0,-672.9245575761972,535.4981883507643,-672.9245575761972
00:00:08.85,-737.5131173581685,0.0,0,-708.3238991677339,516.0634682332877,-708.3238991677339
00:00:08.87,-786.2884321366198,0.0,0,-739.6978938103393,496.44219695135604,-739.6978938103393
00:00:08.88,-830.595899195811,0.0,0,-766.8682936709224,476.7029705353829,-766.8682936709224
00:00:08.89,-870.1837546695288,0.0,0,-789.6807353073231,456.91572513159065,-789.6807353073231
00:00:08.90,-904.8270524660204,0.0,0,-808.0056168558478,437.1513291630369,-808.0056168558478
00:00:08.91,-934.328942456611,0.0,0,-821.7388345153797,417.48117035556163,-821.7388345153797
00:00:08.92,-958.5217890173736,0.0,0,-830.8023741433934,397.9767399727655,-830.8023741433934
00:00:08.92,-977.2681235681938,0.0,0,-835.1447546024565,378.70921662002763,-835.1447546024565
00:00:08.93,-990.4614256966508,0.0,0,-834.7413203381676,359.7490519800558,-835.1384509420769
00:00:08.95,-998.026728428272,0.0,0,-829.5943815261976,341.1655608315206,-835.0518248574538
00:00:08.96,-999.921044203816,0.0,0,-819.7332009921979,323.026517678025,-834.8124713595591
00:00:08.97,-996.1336091431727,0.0,0,-804.9771880684071,305.401459775737,-834.3462950581348
00:00:08.98,-986.6859442078668,0.0,0,-785.4205424084071,288.35736599160975,-833.5818301729828
00:00:08.99,-971.6317329146734,0.0,0,-761.8932470971922,271.9472001620972,-832.4616960624236
00:00:09.00,-951.0565162951544,0.0,0,-734.0309462100633,256.2287916250322,-830.9237155959804
00:00:09.00,-925.0772068344608,0.0,0,-701.9922477068179,241.25658788547207,-828.9091614102123
00:00:09.01,-893.8414241512692,0.0,0,-665.9594762311996,227.08133688364907,-826.3630725792902
00:00:09.02,-857.5266561936535,0.0,0,-626.1376378279228,213.74979040378076,-823.2345501613001
00:00:09.04,-816.33925071718,0.0,0,-582.753255743354,201.3044303077318,-819.4770299360198
00:00:09.05,-770.5132427757877,0.0,0,-536.2897238374962,189.7795216492126,-815.0522282782304
00:00:09.06,-720.3090248879084,0.0,0,-487.0009428423723,179.20482689153158,-809.926426943295
00:00:09.07,-666.0118674342569,0.0,0,-434.44834990433054,169.61649600409623,-804.0595819895613
00:00:09.08,-607.9302976946035,0.0,0,-379.4288174941193,161.0376629806866,-797.42472629432
00:00:09.08,-546.394346734271,0.0,0,-322.25489343436124,153.48621678670148,-790.0001976558831
00:00:09.09,-481.7536741017214,0.0,0,-263.25137143757433,146.97469197069717,-781.769747246222
00:00:09.10,-414.3755809932948,0.0,0,-202.753445353172,141.5101898250117,-772.7226175291431
00:00:09.12,-344.64292317451907,0.0,0,-141.10480432931988,137.09433054135027,-762.8535891978959
00:00:09.13,-272.95193551731813,0.0,0,-78.65567971280905,133.72323663112903,-752.1629968621913
00:00:09.14,-199.70998051440435,0.0,0,-15.760854784335905,131.3875477027624,-740.6567133922249
00:00:09.15,-125.3332335643062,0.0,0,47.22235136218954,130.07246650994094,-728.3461030054372
00:00:09.16,-50.244318179776215,0.0,0,109.93611434076807,129.7578360072976,-715.2479433594027
00:00:09.16,25.130095443340323,0.0,0,172.0241378574735,172.0241378574735,-701.384317090389
00:00:09.17,100.36171485121304,0.0,0,233.13367840395327,233.13367840395327,-686.7824734107899
00:00:09.18,175.0230589752696,0.0,0,292.917549755957,292.917549755957,-671.4746605488094
00:00:09.20,248.68988716485768,0.0,0,351.0360958872759,351.0360958872759,-655.4979299794956
00:00:09.21,320.94360980720785,0.0,0,407.1591210889826,407.1591210889826,-638.8939135565506
00:00:09.22,391.3736668372096,0.0,0,460.9677663269555,460.9677663269555,-621.7085748083708
00:00:09.23,459.5798606214906,0.0,0,512.1563211761735,512.1563211761735,-603.9919358086123
00:00:09.24,525.1746299612944,0.0,0,560.4339610363165,560.4339610363165,-585.7977811704103
00:00:09.25,587.785252292468,0.0,0,605.5263997577252,605.5263997577252,-567.1833408434081
00:00:09.25,647.055961569436,0.0,0,647.1774482874728,647.1774482874728,-548.2089535132382
00:00:09.26,702.6499697988482,0.0,0,685.1504704792401,685.1504704792401,-528.9377125133557
00:00:09.27,754.2513807360998,0.0,0,719.2297277950559,719.2297277950559,-509.43509625853676
00:00:09.29,801.5669848708786,0.0,0,749.2216052582503,749.2216052582503,-489.768585297337
00:00:09.30,844.3279255020144,0.0,0,774.955711691743,774.955711691743,-470.0072681568826
00:00:09.31,882.2912264349504,0.0,0,796.2858479901147,796.2858479901147,-450.2214382170858
00:00:09.32,915.241172620919,0.0,0,813.0908379237095,813.0908379237095,-430.4821839023859
00:00:09.33,942.990535892864,0.0,0,825.2752167542066,825.2752167542066,-410.86097451712664
00:00:09.33,965.3816388332724,0.0,0,832.7697737489493,832.7697737489493,-391.4292440754692
00:00:09.34,982.2872507286868,0.0,0,835.5319455115513,835.5319455115513,-372.257975488172
00:00:09.35,993.6113105200084,0.0,0,833.5460578939532,835.5009160175263,-353.4172874665763
00:00:09.37,999.2894726405896,0.0,0,826.8234151154852,835.3653300659319,-334.9760264887316
00:00:09.38,999.2894726405892,0.0,0,815.4022355826994,835.0534067146314,-317.0013661438655
00:00:09.39,993.6113105200084,0.0,0,798.6376645097056,834.4844107426794,-299.5695062899034
00:00:09.40,982.2872507286896,0.0,0,777.3662044114695,833.5919387687543,-282.7423858101945
00:00:09.41,965.3816388332727,0.0,0,752.4129047015282,832.3235163614539,-266.5680843959488
00:00:09.41,942.9905358928648,0.0,0,723.1730192299229,830.6180398437738,-251.10337965179457
00:00:09.42,915.2411726209198,0.0,0,689.8132561359778,828.4179650983394,-236.40155721761062
00:00:09.43,882.291226434958,0.0,0,652.5237054616279,825.6696172915158,-222.5120999882475
00:00:09.45,844.3279255020154,0.0,0,611.5167604250755,822.3234789029776,-209.48039904428933
00:00:09.46,801.5669848708714,0.0,0,567.0259118931904,818.3344544184497,-197.3474879358912
00:00:09.47,754.251380736101,0.0,0,520.0141931712817,813.6732003364627,-186.1387116685916
00:00:09.48,702.6499697988495,0.0,0,470.00794280657544,808.3034306875583,-175.88642019241712
00:00:09.49,647.0559615694482,0.0,0,416.5875544432582,802.1828701212411,-166.6290143387347
00:00:09.50,587.7852522924696,0.0,0,360.8035166048653,795.2863177225477,-158.38788104274093
00:00:09.50,525.1746299612961,0.0,0,302.972631116644,787.5939163693304,-151.17912304025054
00:00:09.51,459.57986062149234,0.0,0,243.4233391107624,779.0912510996652,-145.01345956914096
00:00:09.52,391.3736668372114,0.0,0,182.49385432277137,769.7694167750262,-139.89615778957983
00:00:09.54,320.9436098072097,0.0,0,120.53024087994956,759.6250546516657,-135.82699531036843
00:00:09.55,248.6898871648458,0.0,0,57.884446502851574,748.6603576493404,-132.80025403203686
00:00:09.56,175.02305897527154,0.0,0,-5.087697705248644,736.883044284425,-130.80474533943078
00:00:09.57,100.361714851215,0.0,0,-68.02849951639311,724.3063014125372,-129.82386649844582
00:00:09.58,25.13009544334228,0.0,0,-130.58043839352075,710.9486961030675,-130.58043839352075
00:00:09.58,-50.24431817976007,0.0,0,-192.3881973136239,696.8340571434317,-192.3881973136239
00:00:09.59,-125.33323356430428,0.0,0,-253.1006820540836,681.9913268434705,-253.1006820540836
00:00:09.60,-199.70998051440245,0.0,0,-312.3730164690114,666.4543839792129,-312.3730164690114
00:00:09.62,-272.9519355173299,0.0,0,-369.8685024187854,650.2618388792442,-369.8685024187854
00:00:09.63,-344.64292317451725,0.0,0,-425.26053321679785,633.4568018152436,-425.26053321679785
00:00:09.64,-414.37558099328,0.0,0,-478.2344497215254,616.0866260099816,-478.2344497215254
00:00:09.65,-481.7536741017197,0.0,0,-528.4893285278695,598.2026267203277,-528.4893285278695
00:00:09.66,-546.3943467342693,0.0,0,-575.7396920975449,579.8597779887984,-575.7396920975449
00:00:09.67,-607.9302976946019,0.0,0,-619.7171311117845,561.1163887841018,-619.7171311117845
00:00:09.67,-666.0118674342448,0.0,0,-660.1718298283967,542.0337603682815,-660.1718298283967
00:00:09.68,-720.3090248879072,0.0,0,-696.8739857763319,522.6758268347719,-696.8739857763319
00:00:09.70,-770.5132427757956,0.0,0,-729.6151157212578,503.10878085733395,-729.6151157212578
00:00:09.71,-816.3392507171869,0.0,0,-758.209240481883,483.40068677390866,-758.209240481883
00:00:09.72,-857.5266561936526,0.0,0,-782.493941865097,463.6210832014242,-782.493941865097
00:00:09.73,-893.8414241512619,0.0,0,-802.3312857146758,443.84057743711014,-802.3312857146758
00:00:09.74,-925.07720683446,0.0,0,-817.6086058289885,424.1304339485773,-817.6086058289885
00:00:09.75,-951.0565162951538,0.0,0,-828.2391442937319,404.56215928854124,-828.2391442937319
00:00:09.75,-971.631732914673,0.0,0,-834.162544591569,385.2070857904145,-834.162544591569
00:00:09.76,-986.6859442078668,0.0,0,-835.3451946870595,366.135956407954,-835.3451946870595
00:00:09.77,-996.1336091431712,0.0,0,-831.78041813776,347.4185130556772,-835.2894950534767
00:00:09.79,-999.9210442038162,0.0,0,-823.4885121458669,329.12309078690305,-835.1051046955453
00:00:09.80,-998.0267284282712,0.0,0,-810.5166323344955,311.3162201131312,-834.7209098149038
00:00:09.81,-990.4614256966512,0.0,0,-792.4650955210188,294.0696370563476,-834.0606627165619
00:00:09.82,-977.2681235681944,0.0,0,-770.1677098636577,277.4409285107225,-833.0623353282352
00:00:09.83,-958.5217890173784,0.0,0,-743.7368245636485,261.4850261189354,-831.6666242225385
00:00:09.83,-934.3289424566116,0.0,0,-713.0738479271829,246.25754371196481,-829.8136120929236
00:00:09.84,-904.827052466021,0.0,0,-678.3533146211018,231.81049905051066,-827.4470449449263
00:00:09.85,-870.1837546695298,0.0,0,-639.7728000827891,218.19201000155286,-824.5146348689555
00:00:09.87,-830.595899195812,0.0,0,-597.5517986109189,205.446012991983,-820.9683405524237
00:00:09.88,-786.288432136621,0.0,0,-551.9304768711678,193.61200533787127,-816.7646239324041
00:00:09.89,-737.5131173581698,0.0,0,-503.6417392841895,182.71741557815156,-811.8720788597758
00:00:09.90,-684.5471059286876,0.0,0,-452.22900519416123,172.79637775358418,-806.2526558337506
00:00:09.91,-627.6913612907032,0.0,0,-397.9990163921429,163.8776997200572,-799.8736927174755
00:00:09.92,-567.2689491267631,0.0,0,-341.5089383675974,155.98103349993758,-792.7117434307586
00:00:09.92,-503.6232016357596,0.0,0,-283.0796879833831,149.1207097267607,-784.7487425643933
00:00:09.93,-437.11576665093577,0.0,0,-223.0432044179828,143.3056485682491,-775.9720935308557
00:00:09.95,-368.1245526846721,0.0,0,-161.74056284330098,138.53930151494362,-766.3747258638626
00:00:09.96,-297.04158157703336,0.0,0,-99.52003619881174,134.81962436316618,-755.9551213378462
00:00:09.97,-224.27076094938417,0.0,0,-36.73511607497865,132.13908154382017,-744.7173087556139
00:00:09.98,-150.22558912075067,0.0,0,26.257496048718785,130.48468177045922,-732.6708274305462
00:00:09.99,-75.32680552793097,0.0,0,89.09991579738107,129.83804480212987,-719.8306595676098
00:00:10.00,-2.939152317953648e-12,0.0,0,151.43510960850412,151.43510960850412,-706.2171319242331
00:00:10.00,75.32680552792512,47.80101517878211,0,212.90892359842545,212.90892359842545,-691.8557873066915
00:00:10.01,150.22558912074487,175.09249443314695,0,273.1720960593492,273.1720960593492,-676.7772266290971
00:00:10.02,224.27076094937848,348.4855037898343,0,331.8822421518423,331.8822421518423,-661.0169224293949
00:00:10.04,297.0415815770413,541.1329833307035,0,388.7057995157103,388.7057995157103,-644.6150048990025
00:00:10.05,368.1245526846799,729.8218724727561,0,443.3199237441811,443.3199237441811,-627.6160216389528
00:00:10.06,437.1157666509305,899.8840974941801,0,495.4143229512313,495.4143229512313,-610.0686725047312
00:00:10.07,503.62320163575447,1041.1923392829308,0,544.6930210079278,544.6930210079278,-592.025521043596
00:00:10.08,567.2689491267583,1146.7322066535203,0,590.8760394289915,590.8760394289915,-573.5426841612118
00:00:10.08,627.6913612906985,1211.8426609888652,0,633.7009883530026,633.7009883530026,-554.6795017781772
00:00:10.09,684.5471059286834,1233.8390424036706,0,672.9245575761976,672.9245575761976,-535.4981883507651
00:00:10.10,737.5131173581658,1211.8426609888675,0,708.3238991677345,708.3238991677345,-516.0634682332885
00:00:10.12,786.2884321366175,1146.7322066535094,0,739.69789381034,739.69789381034,-496.44219695135683
00:00:10.13,830.5958991958165,1041.1923392829376,0,766.8682936709213,766.8682936709213,-476.7029705353837
00:00:10.14,870.1837546695268,899.8840974941887,0,789.6807353073222,789.6807353073222,-456.91572513159144
00:00:10.15,904.8270524660186,729.8218724727664,0,808.0056168558482,808.0056168558482,-437.1513291630377
00:00:10.16,934.3289424566096,541.1329833307142,0,821.7388345153803,821.7388345153803,-417.4811703555624
00:00:10.16,958.5217890173766,348.4855037898791,0,830.8023741433942,830.8023741433942,-397.9767399727662
00:00:10.17,977.268123568193,173.34156948882435,0,835.1447546024558,835.1447546024558,-378.70921662002837
00:00:10.18,990.4614256966504,43.83866438777977,0,834.7413203381677,835.1384509420764,-359.74905198005655
00:00:10.20,998.0267284282718,4.4007374348854,0,829.5943815261979,835.0518248574533,-341.1655608315213
00:00:10.21,999.921044203816,43.44428511825606,0,819.7332009921986,834.8124713595587,-323.0265176780257
00:00:10.22,996.1336091431718,170.7793316732334,0,804.9771880684079,834.3462950581345,-305.4014597757377
00:00:10.23,986.6859442078676,344.2154726575236,0,785.420542408407,833.5818301729826,-288.35736599161044
00:00:10.24,971.6317329146744,536.862952198358,0,761.8932470971922,832.4616960624234,-271.9472001620979
00:00:10.25,951.0565162951556,725.5518413404116,0,734.0309462100637,830.9237155959802,-256.22879162503284
00:00:10.25,925.0772068344623,895.6140663618371,0,701.9922477068186,828.909161410212,-241.25658788547267
00:00:10.26,893.8414241512645,1036.9223081505902,0,665.9594762312,826.36307257929,-227.08133688364967
00:00:10.27,857.5266561936555,1142.4621755211822,0,626.1376378279236,823.2345501612999,-213.74979040378133
00:00:10.29,816.3392507171822,1207.5726298565376,0,582.7532557433542,819.4770299360196,-201.30443030773233
00:00:10.30,770.5132427757902,1229.5690112713385,0,536.2897238374968,815.0522282782301,-189.77952164921314
00:00:10.31,720.3090248879113,1207.5726298565303,0,487.00094284237315,809.9264269432948,-179.2048268915321
00:00:10.32,666.0118674342492,1142.462175521183,0,434.4483499043317,804.059581989561,-169.61649600409672
00:00:10.33,607.9302976946066,1036.922308150614,0,379.4288174941206,797.4247262943197,-161.03766298068706
00:00:10.33,546.3943467342742,895.6140663618678,0,322.25489343436146,790.0001976558829,-153.48621678670193
00:00:10.34,481.7536741017248,725.5518413404468,0,263.2513714375748,781.7697472462218,-146.97469197069762
00:00:10.35,414.3755809932854,536.8629521983955,0,202.75344535317254,772.7226175291429,-141.51018982501216
00:00:10.37,344.6429231745094,344.21547265752565,0,141.1048043293214,762.8535891978956,-137.0943305413507
00:00:10.38,272.9519355173219,169.0715383565032,0,78.65567971280913,752.1629968621912,-133.72323663112945
00:00:10.39,199.7099805144082,39.61133356676055,0,15.760854784334626,740.6567133922247,-131.38754770276282
00:00:10.40,125.33323356431008,8.585794947683894,0,-47.22235136219065,728.3461030054369,-130.07246650994136
00:00:10.41,50.24431817976594,39.30107818057911,0,-109.93611434076901,715.2479433594025,-129.75783600729804
00:00:10.41,-25.13009544333641,166.67755680492883,0,-172.02413785747297,701.3843170903888,-172.02413785747297
00:00:10.42,-100.36171485120914,340.15471553789973,0,-233.1336784039544,686.7824734107896,-233.1336784039544
00:00:10.43,-175.02305897526574,532.8021950787339,0,-292.917549755958,671.4746605488092,-292.917549755958
00:00:10.45,-248.68988716485387,721.4910842208207,0,-351.0360958872768,655.4979299794953,-351.0360958872768
00:00:10.46,-320.9436098072176,891.5533092422437,0,-407.1591210889818,638.8939135565504,-407.1591210889818
00:00:10.47,-391.373666837206,1032.8615510309933,0,-460.9677663269531,621.7085748083706,-460.9677663269531
00:00:10.48,-459.5798606214872,1138.4014184015655,0,-512.1563211761729,603.9919358086121,-512.1563211761729
00:00:10.49,-525.1746299612911,1203.511872736924,0,-560.433961036316,585.7977811704101,-560.433961036316
00:00:10.50,-587.785252292465,1225.5082541517277,0,-605.5263997577248,567.183340843408,-605.5263997577248
00:00:10.50,-647.0559615694438,1203.5118727369227,0,-647.1774482874707,548.208953513238,-647.1774482874707
00:00:10.51,-702.6499697988454,1138.4014184015778,0,-685.1504704792383,528.9377125133556,-685.1504704792383
00:00:10.52,-754.2513807360972,1032.861551031012,0,-719.2297277950556,509.43509625853665,-719.2297277950556
00:00:10.54,-801.5669848708764,891.5533092422389,0,-749.2216052582502,489.76858529733687,-749.2216052582502
00:00:10.55,-844.3279255020199,721.491084220815,0,-774.9557116917431,470.0072681568825,-774.9557116917431
00:00:10.56,-882.2912264349553,532.8021950787628,0,-796.2858479901133,450.2214382170857,-796.2858479901133
00:00:10.57,-915.2411726209174,340.1547155379277,0,-813.0908379237094,430.48218390238577,-813.0908379237094
00:00:10.58,-942.9905358928628,165.01078123690297,0,-825.2752167542073,410.8609745171265,-825.2752167542073
00:00:10.58,-965.3816388332714,35.591184018351896,0,-832.7697737489502,391.42924407546906,-832.7697737489502
00:00:10.59,-982.2872507286886,12.56574300061493,0,-835.5319455115524,372.25797548817184,-835.5319455115524
00:00:10.60,-993.6113105200078,35.36092960817109,0,-833.5460578939533,353.4172874665761,-835.5009160175274
00:00:10.62,-999.2894726405896,162.77680971826885,0,-826.8234151154859,334.9760264887314,-835.365330065933
00:00:10.63,-999.2894726405892,336.2929759221098,0,-815.4022355827003,317.0013661438653,-835.0534067146325
00:00:10.64,-993.6113105200088,528.9404554629447,0,-798.6376645097068,299.56950628990325,-834.4844107426806
00:00:10.65,-982.2872507286878,717.6293446049978,0,-777.36620441147,282.74238581019426,-833.5919387687554
00:00:10.66,-965.381638833274,887.6915696264224,0,-752.4129047015281,266.56808439594863,-832.323516361455
00:00:10.67,-942.990535892866,1028.9998114151736,0,-723.1730192299229,251.1033796517944,-830.6180398437748
00:00:10.67,-915.2411726209214,1134.539678785749,0,-689.8132561359782,236.40155721761045,-828.4179650983405
00:00:10.68,-882.2912264349532,1199.6501331211102,0,-652.5237054616287,222.51209998824734,-825.6696172915168
00:00:10.70,-844.32792550201,1221.6465145359166,0,-611.5167604250763,209.48039904428916,-822.3234789029786
00:00:10.71,-801.5669848708736,1199.6501331211066,0,-567.0259118931907,197.34748793589102,-818.3344544184507
00:00:10.72,-754.2513807361037,1134.5396787857576,0,-520.0141931712814,186.13871166859144,-813.6732003364637
00:00:10.73,-702.6499697988523,1028.9998114151872,1,-520.0141931712814,186.13871166859144,-813.6732003364637
00:00:10.74,-647.0559615694405,887.6915696264388,1,-520.0141931712814,186.13871166859144,-813.6732003364637
00:00:10.75,-587.7852522924728,717.6293446050171,1,-520.0141931712814,186.13871166859144,-813.6732003364637
00:00:10.75,-525.1746299612994,528.9404554629654,1,-520.0141931712814,186.13871166859144,-813.6732003364637
00:00:10.76,-459.5798606214959,336.2929759221296,1,-520.0141931712814,186.13871166859144,-813.6732003364637
00:00:10.77,-391.373666837215,161.1490416211028,1,-520.0141931712814,186.13871166859144,-813.6732003364637
00:00:10.79,-320.9436098072,31.76806179868902,1,-520.0141931712814,186.13871166859144,-813.6732003364637
00:00:10.80,-248.6898871648496,16.35063399807086,1,-520.0141931712814,186.13871166859144,-813.6732003364637
00:00:10.81,-175.0230589752754,31.613887520700132,1,-520.0141931712814,186.13871166859144,-813.6732003364637
00:00:10.82,-100.3617148512189,159.0672380516512,1,-520.0141931712814,186.13871166859144,-813.6732003364637
00:00:10.83,-25.130095443346203,332.62049997215627,1,-520.0141931712814,186.13871166859144,-813.6732003364637
00:00:10.83,50.244318179770346,525.2679795129909,1,-520.0141931712814,186.13871166859144,-813.6732003364637
00:00:10.84,125.33323356430036,713.9568686550449,1,-520.0141931712814,186.13871166859144,-813.6732003364637
00:00:10.85,199.70998051439855,884.0190936764711,1,-520.0141931712814,186.13871166859144,-813.6732003364637
00:00:10.87,272.9519355173261,1025.327335465247,1,-520.0141931712814,186.13871166859144,-813.6732003364637
00:00:10.88,344.6429231745135,1130.8672028358176,1,-520.0141931712814,186.13871166859144,-813.6732003364637
00:00:10.89,414.37558099328936,1195.9776571711739,1,-520.0141931712814,186.13871166859144,-813.6732003364637
00:00:10.90,481.7536741017162,1217.9740385859761,1,-520.0141931712814,186.13871166859144,-813.6732003364637
00:00:10.91,546.394346734266,1195.9776571711693,1,-520.0141931712814,186.13871166859144,-813.6732003364637
00:00:10.92,607.9302976945988,1130.867202835823,1,-520.0141931712814,186.13871166859144,-813.6732003364637
00:00:10.92,666.0118674342525,1025.327335465255,1,-520.0141931712814,186.13871166859144,-813.6732003364637
00:00:10.93,720.3090248879045,884.0190936765091,1,-520.0141931712814,186.13871166859144,-813.6732003364637
00:00:10.95,770.5132427757931,713.9568686550558,1,-520.0141931712814,186.13871166859144,-813.6732003364637
00:00:10.96,816.3392507171848,525.267979513003,1,-520.0141931712814,186.13871166859144,-813.6732003364637
00:00:10.97,857.5266561936505,332.6204999721681,1,-520.0141931712814,186.13871166859144,-813.6732003364637
00:00:10.98,893.8414241512666,157.47656567114473,1,-520.0141931712814,186.13871166859144,-813.6732003364637
00:00:10.99,925.0772068344586,28.1323106082541,1,-520.0141931712814,186.13871166859144,-813.6732003364637
00:00:11.00,951.0565162951524,19.950027676607533,1,-520.0141931712814,186.13871166859144,-813.6732003364637
00:00:11.00,971.631732914672,28.050487778942284,1,-520.0141931712814,186.13871166859144,-813.6732003364637
00:00:11.01,986.685944207866,155.53947230730682,1,-520.0141931712814,186.13871166859144,-813.6732003364637
00:00:11.02,996.1336091431722,329.12801188525304,1,-520.0141931712814,186.13871166859144,-813.6732003364637
00:00:11.04,999.9210442038162,521.7754914261225,1,-520.0141931712814,186.13871166859144,-813.6732003364637
00:00:11.05,998.0267284282714,710.4643805681746,1,-520.0141931712814,186.13871166859144,-813.6732003364637
00:00:11.06,990.4614256966516,880.5266055895981,1,-520.0141931712814,186.13871166859144,-813.6732003364637
00:00:11.07,977.268123568195,1021.8348473783485,1,-520.0141931712814,186.13871166859144,-813.6732003364637
00:00:11.08,958.5217890173752,1127.3747147489219,1,-520.0141931712814,186.13871166859144,-813.6732003364637
00:00:11.08,934.328942456613,1192.4851690842809,1,-520.0141931712814,186.13871166859144,-813.6732003364637
00:00:11.09,904.8270524660228,1214.4815504990859,1,-520.0141931712814,186.13871166859144,-813.6732003364637
00:00:11.10,870.1837546695317,1192.4851690842818,1,-520.0141931712814,186.13871166859144,-813.6732003364637
00:00:11.12,830.5958991958141,1127.3747147489232,1,-520.0141931712814,186.13871166859144,-813.6732003364637
00:00:11.13,786.2884321366147,1021.8348473783506,1,-520.0141931712814,186.13871166859144,-813.6732003364637
00:00:11.14,737.5131173581725,880.5266055896011,1,-520.0141931712814,186.13871166859144,-813.6732003364637
00:00:11.15,684.5471059286905,710.4643805681783,1,-520.0141931712814,186.13871166859144,-813.6732003364637
00:00:11.16,627.6913612907061,521.7754914261261,1,-520.0141931712814,186.13871166859144,-813.6732003364637
00:00:11.16,567.2689491267546,329.1280118852908,1,-520.0141931712814,186.13871166859144,-813.6732003364637
00:00:11.17,503.6232016357629,153.98407758426515,1,-520.0141931712814,186.13871166859144,-813.6732003364637
00:00:11.18,437.1157666509393,24.67474740223895,1,-520.0141931712814,186.13871166859144,-813.6732003364637
00:00:11.20,368.1245526846757,23.373015250568983,1,-520.0141931712814,186.13871166859144,-813.6732003364637
00:00:11.21,297.0415815770371,24.661730080730877,1,-520.0141931712814,186.13871166859144,-813.6732003364637
00:00:11.22,224.2707609493741,152.18460218608493,1,-520.0141931712814,186.13871166859144,-813.6732003364637
00:00:11.23,150.22558912075456,325.8066904652469,1,-520.0141931712814,186.13871166859144,-813.6732003364637
00:00:11.24,75.32680552793488,518.4541700060815,1,-520.0141931712814,186.13871166859144,-813.6732003364637
00:00:11.25,6.8592600364983546e-12,707.1430591481351,1,-520.0141931712814,186.13871166859144,-813.6732003364637
00:00:11.25,-75.32680552792121,877.20528416956,1,-520.0141931712814,186.13871166859144,-813.6732003364637
00:00:11.26,-150.22558912075505,1018.5135259583124,1,-520.0141931712814,186.13871166859144,-813.6732003364637
00:00:11.27,-224.27076094937465,1124.053393328888,1,-520.0141931712814,186.13871166859144,-813.6732003364637
00:00:11.29,-297.0415815770376,1189.1638476642502,1,-520.0141931712814,186.13871166859144,-813.6732003364637
00:00:11.30,-368.1245526846762,1211.1602290790584,1,-520.0141931712814,186.13871166859144,-813.6732003364637
00:00:11.31,-437.115766650927,1189.1638476642497,1,-520.0141931712814,186.13871166859144,-813.6732003364637
00:00:11.32,-503.62320163576334,1124.0533933289016,1,-520.0141931712814,186.13871166859144,-813.6732003364637
00:00:11.33,-567.268949126755,1018.5135259583317,1,-520.0141931712814,186.13871166859144,-813.6732003364637
00:00:11.33,-627.6913612906955,877.2052841695845,1,-520.0141931712814,186.13871166859144,-813.6732003364637
00:00:11.34,-684.5471059286805,707.1430591481633,1,-520.0141931712814,186.13871166859144,-813.6732003364637
00:00:11.35,-737.5131173581728,518.4541700061118,1,-520.0141931712814,186.13871166859144,-813.6732003364637
00:00:11.37,-786.2884321366238,325.8066904652421,1,-520.0141931712814,186.13871166859144,-813.6732003364637
00:00:11.38,-830.5958991958145,150.66275616422013,1,-520.0141931712814,186.13871166859144,-813.6732003364637
00:00:11.39,-870.1837546695249,21.386639196418173,1,-520.0141931712814,186.13871166859144,-813.6732003364637
00:00:11.40,-904.8270524660168,26.628242374338015,1,-520.0141931712814,186.13871166859144,-813.6732003364637
00:00:11.41,-934.3289424566132,21.43905522819341,1,-520.0141931712814,186.13871166859144,-813.6732003364637
00:00:11.41,-958.5217890173756,148.994154082068,1,-520.0141931712814,186.13871166859144,-813.6732003364637
00:00:11.42,-977.268123568192,322.64814684226826,1,-520.0141931712814,186.13871166859144,-813.6732003364637
00:00:11.43,-990.4614256966496,515.2956263831024,1,-520.0141931712814,186.13871166859144,-813.6732003364637
00:00:11.45,-998.0267284282714,703.9845155251896,1,-520.0141931712814,186.13871166859144,-813.6732003364637
00:00:11.46,-999.921044203816,874.046740546612,1,-520.0141931712814,186.13871166859144,-813.6732003364637
00:00:11.47,-996.1336091431722,1015.3549823353605,1,-520.0141931712814,186.13871166859144,-813.6732003364637
00:00:11.48,-986.6859442078684,1120.8948497059323,1,-520.0141931712814,186.13871166859144,-813.6732003364637
00:00:11.49,-971.6317329146754,1186.0053040412818,1,-520.0141931712814,186.13871166859144,-813.6732003364637
00:00:11.50,-951.0565162951524,1208.0016854560927,1,-520.0141931712814,186.13871166859144,-813.6732003364637
00:00:11.50,-925.0772068344584,1186.0053040412872,1,-520.0141931712814,186.13871166859144,-813.6732003364637
00:00:11.51,-893.8414241512663,1120.8948497059423,1,-520.0141931712814,186.13871166859144,-813.6732003364637
00:00:11.52,-857.5266561936577,1015.3549823353742,1,-520.0141931712814,186.13871166859144,-813.6732003364637
00:00:11.54,-816.3392507171845,874.0467405466013,1,-520.0141931712814,186.13871166859144,-813.6732003364637
00:00:11.55,-770.5132427757837,703.9845155251776,1,-520.0141931712814,186.13871166859144,-813.6732003364637
00:00:11.56,-720.3090248879041,515.2956263831243,1,-520.0141931712814,186.13871166859144,-813.6732003364637
00:00:11.57,-666.0118674342522,322.6481468422892,1,-520.0141931712814,186.13871166859144,-813.6732003364637
00:00:11.58,-607.9302976946097,147.50421254126513,1,-520.0141931712814,186.13871166859144,-813.6732003364637
00:00:11.58,-546.3943467342775,18.259681009688393,1,-520.0141931712814,186.13871166859144,-813.6732003364637
00:00:11.59,-481.7536741017158,29.72393097920667,1,-520.0141931712814,186.13871166859144,-813.6732003364637
00:00:11.60,-414.3755809932889,18.37432350936706,1,-520.0141931712814,186.13871166859144,-813.6732003364637
00:00:11.62,-344.64292317451304,145.9600696804539,1,-520.0141931712814,186.13871166859144,-813.6732003364637
00:00:11.63,-272.95193551732564,319.64440328467344,1,-520.0141931712814,186.13871166859144,-813.6732003364637
00:00:11.64,-199.70998051441205,512.2918828255085,1,-520.0141931712814,186.13871166859144,-813.6732003364637
00:00:11.65,-125.3332335642999,700.9807719675619,1,-520.0141931712814,186.13871166859144,-813.6732003364637
00:00:11.66,-50.244318179769856,871.0429969889856,1,-520.0141931712814,186.13871166859144,-813.6732003364637
00:00:11.67,25.13009544333249,1012.3512387777364,1,-520.0141931712814,186.13871166859144,-813.6732003364637
00:00:11.67,100.36171485120524,1117.8911061483102,1,-520.0141931712814,186.13871166859144,-813.6732003364637
00:00:11.68,175.02305897527586,1183.0015604836633,1,-520.0141931712814,186.13871166859144,-813.6732003364637
00:00:11.70,248.68988716486385,1204.997941898477,1,-520.0141931712814,186.13871166859144,-813.6732003364637
00:00:11.71,320.94360980721393,1183.001560483666,1,-520.0141931712814,186.13871166859144,-813.6732003364637
00:00:11.72,391.3736668372024,1117.8911061483166,1,-520.0141931712814,186.13871166859144,-813.6732003364637
00:00:11.73,459.5798606214837,1012.3512387777448,1,-520.0141931712814,186.13871166859144,-813.6732003364637
00:00:11.74,525.1746299612998,871.042996988996,1,-520.0141931712814,186.13871166859144,-813.6732003364637
00:00:11.75,587.7852522924733,700.9807719675739,1,-520.0141931712814,186.13871166859144,-813.6732003364637
00:00:11.75,647.0559615694408,512.2918828255217,1,-520.0141931712814,186.13871166859144,-813.6732003364637
00:00:11.76,702.6499697988427,319.6444032846864,1,-520.0141931712814,186.13871166859144,-813.6732003364637
00:00:11.77,754.2513807360947,144.50046898366008,1,-520.0141931712814,186.13871166859144,-813.6732003364637
00:00:11.79,801.5669848708824,15.285974887638531,1,-520.0141931712814,186.13871166859144,-813.6732003364637
00:00:11.80,844.3279255020178,32.66790004002587,1,-520.0141931712814,186.13871166859144,-813.6732003364637
00:00:11.81,882.2912264349535,15.459794139166434,1,-520.0141931712814,186.13871166859144,-813.6732003364637
00:00:11.82,915.241172620916,143.0746856039343,1,-520.0141931712814,186.13871166859144,-813.6732003364637
00:00:11.83,942.9905358928614,316.78787304891694,1,-520.0141931712814,186.13871166859144,-813.6732003364637
00:00:11.83,965.381638833274,509.4353525897516,1,-520.0141931712814,186.13871166859144,-813.6732003364637
00:00:11.84,982.287250728688,698.1242417318051,1,-520.0141931712814,186.13871166859144,-813.6732003364637
00:00:11.85,993.6113105200074,868.1864667532309,1,-520.0141931712814,186.13871166859144,-813.6732003364637
00:00:11.87,999.2894726405892,1009.4947085420065,1,-520.0141931712814,186.13871166859144,-813.6732003364637
00:00:11.88,999.2894726405896,1115.0345759125764,1,-520.0141931712814,186.13871166859144,-813.6732003364637
00:00:11.89,993.6113105200078,1180.1450302479245,1,-520.0141931712814,186.13871166859144,-813.6732003364637
00:00:11.90,982.2872507286884,1202.1414116627332,1,-520.0141931712814,186.13871166859144,-813.6732003364637
00:00:11.91,965.3816388332748,1180.145030247925,1,-520.0141931712814,186.13871166859144,-813.6732003364637
00:00:11.92,942.9905358928672,1115.0345759125787,1,-520.0141931712814,186.13871166859144,-813.6732003364637
00:00:11.92,915.2411726209172,1009.4947085420097,1,-520.0141931712814,186.13871166859144,-813.6732003364637
00:00:11.93,882.2912264349551,868.1864667532632,1,-520.0141931712814,186.13871166859144,-813.6732003364637
00:00:11.95,844.327925502012,698.1242417318099,1,-520.0141931712814,186.13871166859144,-813.6732003364637
00:00:11.96,801.566984870876,509.43535258975635,1,-520.0141931712814,186.13871166859144,-813.6732003364637
00:00:11.97,754.2513807361062,316.7878730489217,1,-520.0141931712814,186.13871166859144,-813.6732003364637
00:00:11.98,702.6499697988451,141.6439387478988,1,-520.0141931712814,186.13871166859144,-813.6732003364637
00:00:11.99,647.0559615694434,12.458009954258614,1,-520.0141931712814,186.13871166859144,-813.6732003364637
00:00:12.00,587.785252292476,35.46758532407807,1,-520.0141931712814,186.13871166859144,-813.6732003364637
00:00:12.00,525.1746299613027,12.688105707948125,1,-520.0141931712814,186.13871166859144,-813.6732003364637
00:00:12.01,459.5798606214993,140.33071405702367,1,-520.0141931712814,186.13871166859144,-813.6732003364637
00:00:12.03,391.3736668371925,314.0713412175073,1,-520.0141931712814,186.13871166859144,-813.6732003364637
00:00:12.04,320.9436098072037,506.71882075834264,1,-520.0141931712814,186.13871166859144,-813.6732003364637
00:00:12.05,248.68988716485345,695.4077099003948,1,-520.0141931712814,186.13871166859144,-813.6732003364637
00:00:12.06,175.02305897527924,865.4699349218176,1,-520.0141931712814,186.13871166859144,-813.6732003364637
00:00:12.07,100.3617148512228,1006.7781767105671,1,-520.0141931712814,186.13871166859144,-813.6732003364637
00:00:12.08,25.130095443335914,1112.3180440811398,1,-520.0141931712814,186.13871166859144,-813.6732003364637
00:00:12.08,-50.24431817976643,1177.4284984164906,1,-520.0141931712814,186.13871166859144,-813.6732003364637
00:00:12.09,-125.33323356429648,1199.4248798313024,1,-520.0141931712814,186.13871166859144,-813.6732003364637
00:00:12.10,-199.7099805143948,1177.4284984164974,1,-520.0141931712814,186.13871166859144,-813.6732003364637
00:00:12.12,-272.95193551732234,1112.3180440811384,1,-520.0141931712814,186.13871166859144,-813.6732003364637
00:00:12.13,-344.6429231745232,1006.778176710565,1,-520.0141931712814,186.13871166859144,-813.6732003364637
00:00:12.14,-414.3755809932858,865.4699349218147,1,-520.0141931712814,186.13871166859144,-813.6732003364637
00:00:12.15,-481.7536741017128,695.4077099003912,1,-520.0141931712814,186.13871166859144,-813.6732003364637
00:00:12.16,-546.3943467342627,506.718820758339,1,-520.0141931712814,186.13871166859144,-813.6732003364637
00:00:12.16,-607.9302976946069,314.0713412175039,1,-520.0141931712814,186.13871166859144,-813.6732003364637
00:00:12.17,-666.0118674342496,138.92740691647873,1,-520.0141931712814,186.13871166859144,-813.6732003364637
00:00:12.18,-720.3090248879017,9.768643441148242,1,-520.0141931712814,186.13871166859144,-813.6732003364637
00:00:12.20,-770.5132427757906,38.130058172063855,1,-520.0141931712814,186.13871166859144,-813.6732003364637
00:00:12.21,-816.3392507171825,10.052257588452676,1,-520.0141931712814,186.13871166859144,-813.6732003364637
00:00:12.22,-857.5266561936559,137.72122441873057,1,-520.0141931712814,186.13871166859144,-813.6732003364637
00:00:12.23,-893.8414241512647,311.4879464755668,1,-520.0141931712814,186.13871166859144,-813.6732003364637
00:00:12.24,-925.0772068344572,504.13542601640165,1,-520.0141931712814,186.13871166859144,-813.6732003364637
00:00:12.25,-951.0565162951513,692.8243151584547,1,-520.0141931712814,186.13871166859144,-813.6732003364637
00:00:12.25,-971.631732914671,862.8865401798796,1,-520.0141931712814,186.13871166859144,-813.6732003364637
00:00:12.26,-986.6859442078676,1004.1947819686311,1,-520.0141931712814,186.13871166859144,-813.6732003364637
00:00:12.28,-996.1336091431732,1109.7346493392217,1,-520.0141931712814,186.13871166859144,-813.6732003364637
00:00:12.29,-999.921044203816,1174.845103674568,1,-520.0141931712814,186.13871166859144,-813.6732003364637
00:00:12.30,-998.0267284282716,1196.8414850893748,1,-520.0141931712814,186.13871166859144,-813.6732003364637
00:00:12.31,-990.4614256966522,1174.8451036745653,1,-520.0141931712814,186.13871166859144,-813.6732003364637
00:00:12.32,-977.2681235681928,1109.7346493392163,1,-520.0141931712814,186.13871166859144,-813.6732003364637
00:00:12.33,-958.5217890173764,1004.1947819686457,1,-520.0141931712814,186.13871166859144,-813.6732003364637
00:00:12.33,-934.3289424566144,862.886540179898,1,-520.0141931712814,186.13871166859144,-813.6732003364637
00:00:12.34,-904.8270524660244,692.8243151584761,1,-520.0141931712814,186.13871166859144,-813.6732003364637
00:00:12.35,-870.1837546695266,504.13542601642484,1,-520.0141931712814,186.13871166859144,-813.6732003364637
00:00:12.37,-830.5958991958084,311.48794647555496,1,-520.0141931712814,186.13871166859144,-813.6732003364637
00:00:12.38,-786.2884321366172,136.34401217453342,1,-520.0141931712814,186.13871166859144,-813.6732003364637
00:00:12.39,-737.5131173581751,7.211082646630075,1,-520.0141931712814,186.13871166859144,-813.6732003364637
00:00:12.40,-684.5471059286934,40.66204335862653,1,-520.0141931712814,186.13871166859144,-813.6732003364637
00:00:12.41,-627.6913612906982,7.545592253749419,1,-520.0141931712814,186.13871166859144,-813.6732003364637
00:00:12.41,-567.2689491267579,135.2396257373698,1,-520.0141931712814,186.13871166859144,-813.6732003364637
00:00:12.42,-503.6232016357664,309.03116378101754,1,-520.0141931712814,186.13871166859144,-813.6732003364637
00:00:12.43,-437.1157666509428,501.6786433218517,1,-520.0141931712814,186.13871166859144,-813.6732003364637
00:00:12.45,-368.1245526846794,690.3675324639389,1,-520.0141931712814,186.13871166859144,-813.6732003364637
00:00:12.46,-297.0415815770273,860.4297574853606,1,-520.0141931712814,186.13871166859144,-813.6732003364637
00:00:12.47,-224.270760949378,1001.7379992741089,1,-520.0141931712814,186.13871166859144,-813.6732003364637
00:00:12.48,-150.22558912075843,1107.2778666446795,1,-520.0141931712814,186.13871166859144,-813.6732003364637
00:00:12.49,-75.32680552793879,1172.3883209800285,1,-520.0141931712814,186.13871166859144,-813.6732003364637
00:00:12.50,-1.0779367755043059e-11,1194.3847023948385,1,-520.0141931712814,186.13871166859144,-813.6732003364637
00:00:12.50,75.32680552793146,1172.3883209800322,1,-520.0141931712814,186.13871166859144,-813.6732003364637
00:00:12.51,150.22558912075118,1107.277866644686,1,-520.0141931712814,186.13871166859144,-813.6732003364637
00:00:12.53,224.27076094938468,1001.7379992740955,1,-520.0141931712814,186.13871166859144,-813.6732003364637
00:00:12.54,297.0415815770338,860.4297574853442,1,-520.0141931712814,186.13871166859144,-813.6732003364637
